,0,1,2,3,4,5,6,7,8,9,10,11,12,13,14,15,16,17,18,19,20,21,22,23,24,25,26,27,28,29,30,31,32,33,34,35,36,37,38,39,40,41,42,43,44,45,46,47,48,49,50,51,52,53,54,55,56,57,58,59,60,61,62,63,64,65,66,67,68,69,70,71,72,73,74,75,76,77,78,79,80,81,82,83,84,85,86,87,88,89,90,91,92,93,94,95,96,97,98,99,100,101,102,103,104,105,106,107,108,109,110,111,112,113,114,115,116,117,118,119,120,121,122,123,124,125,126,127,128,129,130,131,132,133,134,135,136,137,138,139,140,141,142,143,144,145,146,147,148,149,150,151,152,153,154,155,156,157,158,159,160,161,162,163,164,165,166,167,168,169,170,171,172,173,174,175,176,177,178,179,180,181,182,183,184,185,186,187,188,189,190,191,192,193,194,195,196,197,198,199,200,201,202,203,204,205,206,207,208,209,210,211,212,213,214,215,216,217,218,219,220,221,222,223,224,225,226,227,228,229,230,231,232,233,234,235,236,237,238,239,240,241,242,243,244,245,246,247,248,249,250,251,252,253,254,255,256,257,258,259,260,261,262,263,264,265,266,267,268,269,270,271,272,273,274,275,276,277,278,279,280,281,282,283,284,285,286,287,288,289,290,291,292,293,294,295,296,297,298,299,300,301,302,303,304,305,306,307,308,309,310,311,312,313,314,315,316,317,318,319,320,321,322,323,324,325,326,327,328,329,330,331,332,333,334,335,336,337,338,339,340,341,342,343,344,345,346,347,348,349,350,351,352,353,354,355,356,357,358,359,360,361,362,363,364,365,366,367,368,369,370,371,372,373,374,375,376,377,378,379,380,381,382,383,384,385,386,387,388,389,390,391,392,393,394,395,396,397,398,399,400,401,402,403,404,405,406,407,408,409,410,411,412,413,414,415,416,417,418,419,420,421,422,423,424,425,426,427,428,429,430,431,432,433,434,435,436,437,438,439,440,441,442,443,444,445,446,447,448,449,450,451,452,453,454,455,456,457,458,459,460,461,462,463,464,465,466,467,468,469,470,471,472,473,474,475,476,477,478,479,480,481,482,483,484,485,486,487,488,489,490,491,492,493,494,495,496,497,498,499,500,501,502,503,504,505,506,507,508,509,510,511,512,513,514,515,516,517,518,519,520,521,522,523,524,525,526,527,528,529,530,531,532,533,534,535,536,537,538,539,540,541,542,543,544,545,546,547,548,549,550,551,552,553,554,555,556,557,558,559,560,561,562,563,564,565,566,567,568,569,570,571,572,573,574,575,576,577,578,579,580,581,582,583,584,585,586,587,588,589,590,591,592,593,594,595,596,597,598,599,600,601,602,603,604,605,606,607,608,609,610,611,612,613,614,615,616,617,618,619,620,621,622,623,624,625,626,627,628,629,630,631,632,633,634,635,636,637,638,639,640,641,642,643,644,645,646,647,648,649,650,651,652,653,654,655,656,657,658,659,660,661,662,663,664,665,666,667,668,669,670,671,672,673,674,675,676,677,678,679,680,681,682,683,684,685,686,687,688,689,690,691,692,693,694,695,696,697,698,699,700,701,702,703,704,705,706,707,708,709,710,711,712,713,714,715,716,717,718,719,720,721,722,723,724,725,726,727,728,729,730,731,732,733,734,735,736,737,738,739,740,741,742,743,744,745,746,747,748,749,750,751,752,753,754,755,756,757,758,759,760,761,762,763,764,765,766,767,768,769,770,771,772,773,774,775,776,777,778,779,780,781,782,783,784,785,786,787,788,789,790,791,792,793,794,795,796,797,798,799,800,801,802,803,804,805,806,807,808,809,810,811,812,813,814,815,816,817,818,819,820,821,822,823,824,825,826,827,828,829,830,831,832,833,834,835,836,837,838,839,840,841,842,843,844,845,846,847,848,849,850,851,852,853,854,855,856,857,858,859,860,861,862,863,864,865,866,867,868,869,870,871,872,873,874,875,876,877,878,879,880,881,882,883,884,885,886,887,888,889,890,891,892,893,894,895,896,897,898,899,900,901,902,903,904,905,906,907,908,909,910,911,912,913,914,915,916,917,918,919,920,921,922,923,924,925,926,927,928,929,930,931,932,933,934,935,936,937,938,939,940,941,942,943,944,945,946,947,948,949,950,951,952,953,954,955,956,957,958,959,960,961,962,963,964,965,966,967,968,969,970,971,972,973,974,975,976,977,978,979,980,981,982,983,984,985,986,987,988,989,990,991,992,993,994,995,996,997,998,999,1000,1001,1002,1003,1004,1005,1006,1007,1008,1009,1010,1011,1012,1013,1014,1015,1016,1017,1018,1019,1020,1021,1022,1023,1024,1025,1026,1027,1028,1029,1030,1031,1032,1033,1034,1035,1036,1037,1038,1039,1040,1041,1042,1043,1044,1045,1046,1047,1048,1049,1050,1051,1052,1053,1054,1055,1056,1057,1058,1059,1060,1061,1062,1063,1064,1065,1066,1067,1068,1069,1070,1071,1072,1073,1074,1075,1076,1077,1078,1079,1080,1081,1082,1083,1084,1085,1086,1087,1088,1089,1090,1091,1092,1093,1094,1095,1096,1097,1098,1099,1100,1101,1102,1103,1104,1105,1106,1107,1108,1109,1110,1111,1112,1113,1114,1115,1116,1117,1118,1119,1120,1121,1122,1123,1124,1125,1126,1127,1128,1129,1130,1131,1132,1133,1134,1135,1136,1137,1138,1139,1140,1141,1142,1143,1144,1145,1146,1147,1148,1149,1150,1151,1152,1153,1154,1155,1156,1157,1158,1159,1160,1161,1162,1163,1164,1165,1166,1167,1168,1169,1170,1171,1172,1173,1174,1175,1176,1177,1178,1179,1180,1181,1182,1183,1184,1185,1186,1187,1188,1189,1190,1191,1192,1193,1194,1195,1196,1197,1198,1199,1200,1201,1202,1203,1204,1205,1206,1207,1208,1209,1210,1211,1212,1213,1214,1215,1216,1217,1218,1219,1220,1221,1222,1223,1224,1225,1226,1227,1228,1229,1230,1231,1232,1233,1234,1235,1236,1237,1238,1239,1240,1241,1242,1243,1244,1245,1246,1247,1248,1249,1250,1251,1252,1253,1254,1255,1256,1257,1258,1259,1260,1261,1262,1263,1264,1265,1266,1267,1268,1269,1270,1271,1272,1273,1274,1275,1276,1277,1278,1279,1280,1281,1282,1283,1284,1285,1286,1287,1288,1289,1290,1291,1292,1293,1294,1295,1296,1297,1298,1299,1300,1301,1302,1303,1304,1305,1306,1307,1308,1309,1310,1311,1312,1313,1314,1315,1316,1317,1318,1319,1320,1321,1322,1323,1324,1325,1326,1327,1328,1329,1330,1331,1332,1333,1334,1335,1336,1337,1338,1339,1340,1341,1342,1343,1344,1345,1346,1347,1348,1349,1350,1351,1352,1353,1354,1355,1356,1357,1358,1359,1360,1361,1362,1363,1364,1365,1366,1367,1368,1369,1370,1371,1372,1373,1374,1375,1376,1377,1378,1379,1380,1381,1382,1383,1384,1385,1386,1387,1388,1389,1390,1391,1392,1393,1394,1395,1396,1397,1398,1399,1400,1401,1402,1403,1404,1405,1406,1407,1408,1409,1410,1411,1412,1413,1414,1415,1416,1417,1418,1419,1420,1421,1422,1423,1424,1425,1426,1427,1428,1429,1430,1431,1432,1433,1434,1435,1436,1437,1438,1439,1440,1441,1442,1443,1444,1445,1446,1447,1448,1449,1450,1451,1452,1453,1454,1455,1456,1457,1458,1459,1460,1461,1462,1463,1464,1465,1466,1467,1468,1469,1470,1471,1472,1473,1474,1475,1476,1477,1478,1479,1480,1481,1482,1483,1484,1485,1486,1487,1488,1489,1490,1491,1492,1493,1494,1495,1496,1497,1498,1499,1500,1501,1502,1503,1504,1505,1506,1507,1508,1509,1510,1511,1512,1513,1514,1515,1516,1517,1518,1519,1520,1521,1522,1523,1524,1525,1526,1527,1528,1529,1530,1531,1532,1533,1534,1535,1536,1537,1538,1539,1540,1541,1542,1543,1544,1545,1546,1547,1548,1549,1550,1551,1552,1553,1554,1555,1556,1557,1558,1559,1560,1561,1562,1563,1564,1565,1566,1567,1568,1569,1570,1571,1572,1573,1574,1575,1576,1577,1578,1579,1580,1581,1582,1583,1584,1585,1586,1587,1588,1589,1590,1591,1592,1593,1594,1595,1596,1597,1598,1599,1600,1601,1602,1603,1604,1605,1606,1607,1608,1609,1610,1611,1612,1613,1614,1615,1616,1617,1618,1619,1620,1621,1622,1623,1624,1625,1626,1627,1628,1629,1630,1631,1632,1633,1634,1635,1636,1637,1638,1639,1640,1641,1642,1643,1644,1645,1646,1647,1648,1649,1650,1651,1652,1653,1654,1655,1656,1657,1658,1659,1660,1661,1662,1663,1664,1665,1666,1667,1668,1669,1670,1671,1672,1673,1674,1675,1676,1677,1678,1679,1680,1681,1682,1683,1684,1685,1686,1687,1688,1689,1690,1691,1692,1693,1694,1695,1696,1697,1698,1699,1700,1701,1702,1703,1704,1705,1706,1707,1708,1709,1710,1711,1712,1713,1714,1715,1716,1717,1718,1719,1720,1721,1722,1723,1724,1725,1726,1727,1728,1729,1730,1731,1732,1733,1734,1735,1736,1737,1738,1739,1740,1741,1742,1743,1744,1745,1746,1747,1748,1749,1750,1751,1752,1753,1754,1755,1756,1757,1758,1759,1760,1761,1762,1763,1764,1765,1766,1767,1768,1769,1770,1771,1772,1773,1774,1775,1776,1777,1778,1779,1780,1781,1782,1783,1784,1785,1786,1787,1788,1789,1790,1791,1792,1793,1794,1795,1796,1797,1798,1799,1800,1801,1802,1803,1804,1805,1806,1807,1808,1809,1810,1811,1812,1813,1814,1815,1816,1817,1818,1819,1820,1821,1822,1823,1824,1825,1826,1827,1828,1829,1830,1831,1832,1833,1834,1835,1836,1837,1838,1839,1840,1841,1842,1843,1844,1845,1846,1847,1848,1849,1850,1851,1852,1853,1854,1855,1856,1857,1858,1859,1860,1861,1862,1863,1864,1865,1866,1867,1868,1869,1870,1871,1872,1873,1874,1875,1876,1877,1878,1879,1880,1881,1882,1883,1884,1885,1886,1887,1888,1889,1890,1891,1892,1893,1894,1895,1896,1897,1898,1899,1900,1901,1902,1903,1904,1905,1906,1907,1908,1909,1910,1911,1912,1913,1914,1915,1916,1917,1918,1919,1920,1921,1922,1923,1924,1925,1926,1927,1928,1929,1930,1931,1932,1933,1934,1935,1936,1937,1938,1939,1940,1941,1942,1943,1944,1945,1946,1947,1948,1949,1950,1951,1952,1953,1954,1955,1956,1957,1958,1959,1960,1961,1962,1963,1964,1965,1966,1967,1968,1969,1970,1971,1972,1973,1974,1975,1976,1977,1978,1979,1980,1981,1982,1983,1984,1985,1986,1987,1988,1989,1990,1991,1992,1993,1994,1995,1996,1997,1998,1999,2000,2001,2002,2003,2004,2005,2006,2007,2008,2009,2010,2011,2012,2013,2014,2015,2016,2017,2018,2019,2020,2021,2022,2023,2024,2025,2026,2027,2028,2029,2030,2031,2032,2033,2034,2035,2036,2037,2038,2039,2040,2041,2042,2043,2044,2045,2046,2047,2048,2049,2050,2051,2052,2053,2054,2055,2056,2057,2058,2059,2060,2061,2062,2063,2064,2065,2066,2067,2068,2069,2070,2071,2072,2073,2074,2075,2076,2077,2078,2079,2080,2081,2082,2083,2084,2085,2086,2087,2088,2089,2090,2091,2092,2093,2094,2095,2096,2097,2098,2099,2100,2101,2102,2103,2104,2105,2106,2107,2108,2109,2110,2111,2112,2113,2114,2115,2116,2117,2118,2119,2120,2121,2122,2123,2124,2125,2126,2127,2128,2129,2130,2131,2132,2133,2134,2135,2136,2137,2138,2139,2140,2141,2142,2143,2144,2145,2146,2147,2148,2149,2150,2151,2152,2153,2154,2155,2156,2157,2158,2159,2160,2161,2162,2163,2164,2165,2166,2167,2168,2169,2170,2171,2172,2173,2174,2175,2176,2177,2178,2179,2180,2181,2182,2183,2184,2185,2186,2187,2188,2189,2190,2191,2192,2193,2194,2195,2196,2197,2198,2199,2200,2201,2202,2203,2204,2205,2206,2207,2208,2209,2210,2211,2212,2213,2214,2215,2216,2217,2218,2219,2220,2221,2222,2223,2224,2225,2226,2227,2228,2229,2230,2231,2232,2233,2234,2235,2236,2237,2238,2239,2240,2241,2242,2243,2244,2245,2246,2247,2248,2249,2250,2251,2252,2253,2254,2255,2256,2257,2258,2259,2260,2261,2262,2263,2264,2265,2266,2267,2268,2269,2270,2271,2272,2273,2274,2275,2276,2277,2278,2279,2280,2281,2282,2283,2284,2285,2286,2287,2288,2289,2290,2291,2292,2293,2294,2295,2296,2297,2298,2299,2300,2301,2302,2303,2304,2305,2306,2307,2308,2309,2310,2311,2312,2313,2314,2315,2316,2317,2318,2319,2320,2321,2322,2323,2324,2325,2326,2327,2328,2329,2330,2331,2332,2333,2334,2335,2336,2337,2338,2339,2340,2341,2342,2343,2344,2345,2346,2347,2348,2349,2350,2351,2352,2353,2354,2355,2356,2357,2358,2359,2360,2361,2362,2363,2364,2365,2366,2367,2368,2369,2370,2371,2372,2373,2374,2375,2376,2377,2378,2379,2380,2381,2382,2383,2384,2385,2386,2387,2388,2389,2390,2391,2392,2393,2394,2395,2396,2397,2398,2399,2400,2401,2402,2403,2404,2405,2406,2407,2408,2409,2410,2411,2412,2413,2414,2415,2416,2417,2418,2419,2420,2421,2422,2423,2424,2425,2426,2427,2428,2429,2430,2431,2432,2433,2434,2435,2436,2437,2438,2439,2440,2441,2442,2443,2444,2445,2446,2447,2448,2449,2450,2451,2452,2453,2454,2455,2456,2457,2458,2459,2460,2461,2462,2463,2464,2465,2466,2467,2468,2469,2470,2471,2472,2473,2474,2475,2476,2477,2478,2479,2480,2481,2482,2483,2484,2485,2486,2487,2488,2489,2490,2491,2492,2493,2494,2495,2496,2497,2498,2499,2500,2501,2502,2503,2504,2505,2506,2507,2508,2509,2510,2511,2512,2513,2514,2515,2516,2517,2518,2519,2520,2521,2522,2523,2524,2525,2526,2527,2528,2529,2530,2531,2532,2533,2534,2535,2536,2537,2538,2539,2540,2541,2542,2543,2544,2545,2546,2547,2548,2549,2550,2551,2552,2553,2554,2555,2556,2557,2558,2559,2560,2561,2562,2563,2564,2565,2566,2567,2568,2569,2570,2571,2572,2573,2574,2575,2576,2577,2578,2579,2580,2581,2582,2583,2584,2585,2586,2587,2588,2589,2590,2591,2592,2593,2594,2595,2596,2597,2598,2599,2600,2601,2602,2603,2604,2605,2606,2607,2608,2609,2610,2611,2612,2613,2614,2615,2616,2617,2618,2619,2620,2621,2622,2623,2624,2625,2626,2627,2628,2629,2630,2631,2632,2633,2634,2635,2636,2637,2638,2639,2640,2641,2642,2643,2644,2645,2646,2647,2648,2649,2650,2651,2652,2653,2654,2655,2656,2657,2658,2659,2660,2661,2662,2663,2664,2665,2666,2667,2668,2669,2670,2671,2672,2673,2674,2675,2676,2677,2678,2679,2680,2681,2682,2683,2684,2685,2686,2687,2688,2689,2690,2691,2692,2693,2694,2695,2696,2697,2698,2699,2700,2701,2702,2703,2704,2705,2706,2707,2708,2709,2710,2711,2712,2713,2714,2715,2716,2717,2718,2719,2720,2721,2722,2723,2724,2725,2726,2727,2728,2729,2730,2731,2732,2733,2734,2735,2736,2737,2738,2739,2740,2741,2742,2743,2744,2745,2746,2747,2748,2749,2750,2751,2752,2753,2754,2755,2756,2757,2758,2759,2760,2761,2762,2763,2764,2765,2766,2767,2768,2769,2770,2771,2772,2773,2774,2775,2776,2777,2778,2779,2780,2781,2782,2783,2784,2785,2786,2787,2788,2789,2790,2791,2792,2793,2794,2795,2796,2797,2798,2799,2800,2801,2802,2803,2804,2805,2806,2807,2808,2809,2810,2811,2812,2813,2814,2815,2816,2817,2818,2819,2820,2821,2822,2823,2824,2825,2826,2827,2828,2829,2830,2831,2832,2833,2834,2835,2836,2837,2838,2839,2840,2841,2842,2843,2844,2845,2846,2847,2848,2849,2850,2851,2852,2853,2854,2855,2856,2857,2858,2859,2860,2861,2862,2863,2864,2865,2866,2867,2868,2869,2870,2871,2872,2873,2874,2875,2876,2877,2878,2879,2880,2881,2882,2883,2884,2885,2886,2887,2888,2889,2890,2891,2892,2893,2894,2895,2896,2897,2898,2899,2900,2901,2902,2903,2904,2905,2906,2907,2908,2909,2910,2911,2912,2913,2914,2915,2916,2917,2918,2919,2920,2921,2922,2923,2924,2925,2926,2927,2928,2929,2930,2931,2932,2933,2934,2935,2936,2937,2938,2939,2940,2941,2942,2943,2944,2945,2946,2947,2948,2949,2950,2951,2952,2953,2954,2955,2956,2957,2958,2959,2960,2961,2962,2963,2964,2965,2966,2967,2968,2969,2970,2971,2972,2973,2974,2975,2976,2977,2978,2979,2980,2981,2982,2983,2984,2985,2986,2987,2988,2989,2990,2991,2992,2993,2994,2995,2996,2997,2998,2999,3000,3001,3002,3003,3004,3005,3006,3007,3008,3009,3010,3011,3012,3013,3014,3015,3016,3017,3018,3019,3020,3021,3022,3023,3024,3025,3026,3027,3028,3029,3030,3031,3032,3033,3034,3035,3036,3037,3038,3039,3040,3041,3042,3043,3044,3045,3046,3047,3048,3049,3050,3051,3052,3053,3054,3055,3056,3057,3058,3059,3060,3061,3062,3063,3064,3065,3066,3067,3068,3069,3070,3071,3072,3073,3074,3075,3076,3077,3078,3079,3080,3081,3082,3083,3084,3085,3086,3087,3088,3089,3090,3091,3092,3093,3094,3095,3096,3097,3098,3099,3100,3101,3102,3103,3104,3105,3106,3107,3108,3109,3110,3111,3112,3113,3114,3115,3116,3117,3118,3119,3120,3121,3122,3123,3124,3125,3126,3127,3128,3129,3130,3131,3132,3133,3134,3135,3136,3137,3138,3139,3140,3141,3142,3143,3144,3145,3146,3147,3148,3149,3150,3151,3152,3153,3154,3155,3156,3157,3158,3159,3160,3161,3162,3163,3164,3165,3166,3167,3168,3169,3170,3171,3172,3173,3174,3175,3176,3177,3178,3179,3180,3181,3182,3183,3184,3185,3186,3187,3188,3189,3190,3191,3192,3193,3194,3195,3196,3197,3198,3199,3200,3201,3202,3203,3204,3205,3206,3207,3208,3209,3210,3211,3212,3213,3214,3215,3216,3217,3218,3219,3220,3221,3222,3223,3224,3225,3226,3227,3228,3229,3230,3231,3232,3233,3234,3235,3236,3237,3238,3239,3240,3241,3242,3243,3244,3245,3246,3247,3248,3249,3250,3251,3252,3253,3254,3255,3256,3257,3258,3259,3260,3261,3262,3263,3264,3265,3266,3267,3268,3269,3270,3271,3272,3273,3274,3275,3276,3277,3278,3279,3280,3281,3282,3283,3284,3285,3286,3287,3288,3289,3290,3291,3292,3293,3294,3295,3296,3297,3298,3299,3300,3301,3302,3303,3304,3305,3306,3307,3308,3309,3310,3311,3312,3313,3314,3315
0,0.7284494518205573,0.680754713275987,0.6190097909209529,0.6453670620305898,0.6815700168653418,0.7324875771005406,0.758447628632192,0.75065957746419,0.7282815009352195,0.7079279882113259,0.710136529120641,0.7222353094918157,0.7069986433412865,0.7062155880566836,0.7061711425213808,0.6981134916437188,0.6592544749182361,0.5931517600362763,0.5195433440258252,0.4228480605825666,0.3436445517718374,0.3239628361685929,0.3905363073993451,0.4591905839253751,0.5198377207813651,0.5828172959420685,0.6310904484319968,0.6688588705970728,0.6961491869070926,0.7390276923579648,0.8633861482377077,0.9486939793110354,0.8941163445967772,0.7520513623967382,0.6135677337156,0.4666873628156178,0.4492884147719485,0.5800198788530881,0.7116605080534217,0.8024731296285852,0.7946992977800296,0.7917123116445328,0.7605701275748915,0.714401500026618,0.6504970645581123,0.6748462505979065,0.706058085756359,0.7312225006574353,0.7325550744525939,0.7238090213227846,0.7326137672413306,0.7530787295391619,0.7621659111267203,0.7820683505545603,0.7726038517359273,0.7595052010953465,0.7447454111691156,0.7061101920618844,0.6502791595776083,0.554179059098951,0.468673839874743,0.3930990437944581,0.346308676525072,0.3951415260458386,0.4669745210411911,0.5382251932419333,0.6000468846106379,0.6448862354023461,0.6895999457126409,0.7290738957099929,0.7823238831022818,0.8935971542557581,1,0.9826971994303016,0.8490044410035029,0.7104924194826534,0.5613773319242981,0.4876082407601041,0.5926413831691368,0.7078553129682223,0.8186177154397853,0.8555668978511166,0.8370731202366173,0.8158906097524161,0.7909595057841177,0.7112656751036832,0.7174779863253065,0.7515527987706383,0.7903113792485374,0.8116898188246706,0.8128416328512804,0.8127991863503015,0.8068977857366448,0.8006271942865721,0.7720222868771698,0.7690556395631667,0.7616497051092228,0.7530982220330777,0.6935746347597762,0.6135798820279605,0.5289149580609989,0.4333364047545682,0.3287417343008716,0.2861169326847879,0.3296762318064523,0.3994274799213952,0.4716012376982759,0.5358516343011575,0.5906717661806491,0.6261688651757877,0.656193514538784,0.7074090015142733,0.8159227359138308,0.9203640974602124,0.8807388824218787,0.7444555521457001,0.5961278828319587,0.4491203894896873,0.3541522605065124,0.4503985889811499,0.5836418454332906,0.7067595080958906,0.7485249450198506,0.7120425600498725,0.6984969531161207,0.65231835961323,0.6212062375727712,0.6312888320415215,0.6320693876971681,0.590398017984521,0.4585267101472032,0.3261653344370341,0.2190698853081025,0.0861233319800915,0,0.0507998116143113,0.1734873265270211,0.29006156007258,0.4114297804021207,0.565346872757293,0.6223018147612418,0.5867140060398102,0.5631196265392466,0.528896720222706,0.4705796469192327,0.4105309261424574,0.3378301386471785,0.2707724857562166,0.2175046439194323,0.1980372854391663,0.2457543127189438,0.3436098214166891,0.439938599448932,0.5251997416321865,0.613229026980104,0.6713227781188902,0.6940911899611137,0.6958048547316054,0.7086484673840463,0.7135753368816049,0.7192680450361504,0.7222693066913601,0.7298117590158126,0.7251880522993046,0.6911063229507999,0.6550428911776871,0.6013747121344224,0.6280011634750275,0.7118809128018828,0.7374206443035618,0.755864698567251,0.7462008912253157,0.6699790539521251,0.5356600988595348,0.395513664557888,0.2565741434206954,0.1336445014171299,0.1668598177115616,0.2928363270889917,0.4367434011313635,0.5792750742353219,0.7086217800043668,0.6908333903759445,0.6459763772595766,0.6088909127236537,0.5615244144979954,0.5121159877353296,0.450672019636154,0.3812794197497275,0.309280750908961,0.2616248530816527,0.2651030257184885,0.3312840638448566,0.4120959270361437,0.5040932953283201,0.5882457012579358,0.6447770876519465,0.6750595534651715,0.6944645991474294,0.695322571088588,0.682469350061508,0.6689578401360752,0.6561437654984248,0.6425388105221943,0.6422362813384836,0.639057763024864,0.6030157551571751,0.57463075210344,0.5465815851804772,0.594685871356492,0.6739702125779612,0.7081853546283092,0.7186549515192944,0.6553605980616899,0.5187322811760247,0.3785953066777558,0.2211094626588732,0.0813042766036065,0.0211345124829014,0.1064103139592349,0.2333523394802106,0.3377984333248625,0.48161644827029,0.6178683527581654,0.6266700498495679,0.6125225186677445,0.5803105180013493,0.5337600410069889,0.4837260967969126,0.4203855530837295,0.3534316580080467,0.2849697098928567,0.2251447827069248,0.2370228224137882,0.311209663539663,0.4016358506550208,0.4848831605667474,0.5586427611374702,0.6087888773225387,0.6280563708707838,0.6418506316874169,0.6328964539630926,0.6342686587082822,0.626582949209654,0.623936279751863,0.6184999098445525,0.6372600864449627,0.664538623371496,0.6672259736467536,0.6370635322608393,0.5932868350032354,0.5455025854850639,0.5150489003918368,0.5632565393561233,0.633581276093441,No,0.8107889448900669,0.8391834011217039,0.8396121890611614,0.8366269383082192,0.8368668387447473,0.8450700719204003,0.8481063269603986,0.8521185600592285,0.8348210172904673,0.8017260635465691,0.7693403529882545,0.7617644992728769,0.7901724964183436,0.8256356926554591,0.8510062954300881,0.87769978470535,0.9031339181364276,0.9452534102677296,0.9927997404603472,0.9753736935593358,0.8929822872495967,0.7960771447089321,0.6945549945772387,0.5860109534066138,0.4792044897197518,0.432371703118662,0.5177196209920132,0.6223603108749536,0.7190043048818271,0.8209275737470494,0.9182173706457972,0.9999999999999998,0.9927752832532148,0.9440078485900052,0.9150967134398666,0.8861667008298493,0.834246416936913,0.8182444557700908,0.8419992736094646,0.8529212344564592,0.8466404639207117,0.8427980509060424,0.8319649886936269,0.8204561652519222,0.8223062286149052,0.8309917405802578,0.8149119414823469,0.7814011856929357,0.7471433063692718,0.7475384696584231,0.7766371109516614,0.8084861344079377,0.8399356102182953,0.8631021253689457,0.8850759290724877,0.9175533894819764,0.9570680647528088,0.9210579818126396,0.8359806339437583,0.7341281143375158,0.637601669888461,0.5340422467690653,0.4779897911315978,0.5474390421416457,0.6546090707411951,0.7547212989651617,0.8535775010861439,0.9442982646865958,0.9681318030772136,0.9172184048425464,0.8837059207867914,0.8615309158912552,0.8211416434551058,0.802218664940687,0.8324106105758202,0.842476802495159,0.8529567566838934,0.8531330067370957,0.8500173457336191,0.8487264828191068,0.837347283413701,0.8387256582691227,0.8509539861473481,0.8394232000326467,0.8073555661636453,0.772105495457535,0.7594480786263766,0.7872181337140687,0.8199165883349953,0.843322787176014,0.8600598293192785,0.8837771407752111,0.9139565431077592,0.9636548149975968,0.973779069939836,0.9000960984935735,0.8059137286215592,0.7108717893630014,0.6093840899776974,0.5257365039314126,0.5598626111650187,0.661936256503495,0.7590695687150741,0.8603015872425261,0.949236834074296,0.9678520453462738,0.9139301107021522,0.8826415456754566,0.86317629764875,0.8148818411876972,0.8044034427181155,0.8352105991289196,0.8504678110859765,0.8533772874596395,0.8532852051120765,0.8462746276746358,0.8330436557311802,0.8207953179966523,0.8179220009521455,0.78568981140998,0.7758571345417831,0.7796228458736862,0.7851814945533897,0.7962202406694117,0.806571649999068,0.8118791842485298,0.795117341771965,0.77199992069296,0.7306524206027445,0.7284065053258784,0.7872526234909876,0.8268243445399543,0.8426897586370512,0.8120684016687296,0.7188319491036526,0.6218263051061286,0.5181262162297295,0.4190043236805787,0.3172572745316977,0.2105027374912464,0.1162440756718481,0.0598132770749704,0.1153450161047591,0.2073279165305537,0.296756797610197,0.3820684413997413,0.4626487181324006,0.5500867632353559,0.6552327309742874,0.7511198551275873,0.8462874016215165,0.8735506744836308,0.8464595320821793,0.8274160626993166,0.8059838221994167,0.7847918710932726,0.7506872454562792,0.718023702374383,0.6993712574863407,0.7136204043944152,0.7510581542860038,0.7811347216710571,0.7957235960267257,0.7963661508016664,0.7963663209454575,0.7963663209454575,0.7965950489272238,0.8043336417414302,0.7986434357399574,0.7822634176824861,0.7491909420459872,0.7225788847137833,0.7542436202276275,0.8045737932887793,0.8359485314213237,0.8509266766456836,0.8132389674647971,0.709848468850452,0.6133429668125208,0.5082571639664002,0.3996255871897436,0.2910008289279788,0.1865066715224796,0.0900866208560191,0.0022346526175081,0.0024195599530236,0.08956494805746,0.1851438028118897,0.291259863514733,0.3942414409977772,0.4922482960429335,0.5948655969195336,0.6924935071531031,0.7903880158337577,0.8578578101547965,0.8434206945920513,0.8238701956389287,0.799373746042044,0.7735975349495294,0.7354804657025424,0.7098138109473375,0.6907260477603276,0.6970977233543525,0.7296183509238723,0.7623377852421107,0.7787041867564539,0.7795952475256949,0.7795957998896685,0.7801909352544258,0.7929422487037951,0.807510166412156,0.7960953853615471,0.7683709412080633,0.7506974307233951,0.7907843685179887,0.8474003569987738,0.8711645862182416,0.8810457526124462,0.819608237520663,0.7232726977142192,0.6160731736459926,0.5190525767036627,0.4147937424143315,0.3066680280190772,0.2087446710400835,0.1066513519602654,0.0171805267886002,0,0.0828111332251035,0.1843017562236804,0.287982337304338,0.3853896416859836,0.4932543818486101,0.5938888016773409,0.6932893792789734,0.7897689658423974,0.8778844805445492,0.8841281915703274,0.8510461766194732,0.8320704252418618,0.8058776083836989,0.7763405373530612,0.7375073515793631,0.7092925897441484,0.7011245197175595,0.7276998812377158,0.7626661482160941,0.7939063062166085,0.79635675696763,0.7937895997784714,0.7812043855530468,0.7800075183622635,0.7898611249329457,0.781220281627723,0.7598982055630177,0.0834365188620065,0.0711477092930836,0.0525592252884492,0.0229433593939982,0,0.0368599187056317,0.0888220486092485,0.1497347760211886,0.2021494322037944,0.2626628767843746,0.3255552512438848,0.3884511857088384,0.4513471201737919,0.5142430546387464,0.5771389891037004,0.6400285593340129,0.7001981288321768,0.7528407027842339,0.8150031174949848,0.8778417711440532,0.9343586344880416,0.9729887439873536,0.9611467990172428,0.907474412077407,0.8540429196106083,0.7915447195081842,0.7286487850432302,0.665753019593549,0.6034776332039842,0.5506540166710012,0.4907773677479463,0.4278889273365642,0.364993138574432,0.3026448672307933,0.2497044490326967,0.1900167811258422,0.127237642880861,0.072616400955582,0.0487999554647715,0.0586946786001751,0.0701886455462874,0.0944685628360839,0.1321430454810945,0.1690268874184477,0.1996887291117719,0.2029063660553824,0.1776501223292061,0.1444859532802378,0.1218122436015005,0.0948256705911303,0.086409612302106,0.0863875884286278,0.0916797310270078,0.0998559849846638,0.1000660627557565,0.1000660627557565,0.1006846937000616,0.1134380585879561,0.1356991186130165,0.1656947742587946,0.1964973992517267,0.2184357779914107,0.2230186830710452,0.2103172352485907,0.1857572353400036,0.1633212293225434,0.1354730065928033,0.1132589732837479,0.0982720600319111,0.083501695603692,0.0647307639037366,0.0493170466836394,0.0383298706739365,0.0175676146851748,0.0436942415509742,0.0991330737699582,0.1550508906588059,0.2178403231950669,0.279268564356308,0.3313824036229857,0.3864027355188693,0.4298120195789261,0.4911155259857449,0.5483866142245613,0.6034034844021732,0.6661294729403413,0.7290253561179019,0.7912344711110437,0.8439509015248907,0.9039929205627176,0.9633980593132558,1,0.984014033609372,0.941204526492356,0.8960808964628915,0.8342812552244943,0.7797257489126697,0.7219391183126178,0.6590812544502573,0.5961853199853029,0.5332904512581806,0.4716229521715425,0.4193991392149403,0.3583199891339359,0.2954254622786383,0.2325295278136834,0.1696335933487298,0.1069863404171531,0.0582652507731347,0.0567653907230414,0.063924941890324,0.0770908542494028,0.1040960187574122,0.1407996539600091,0.1718171584717005,0.1817515123653437,0.1662906419074517,0.14297496076097,0.1248950322776933,0.1043038095893233,0.1000812455396764,0.1000718438580459,0.1026470240118762,0.1129946138177233,0.1150266130141819,0.1203003293708611,0.1139717223248548,0.1140633514652056,0.1233296513768298,0.1369117246391198,0.1580659990265447,0.1866607241904634,0.2129948232459133,0.2323092111512119,0.2304667602480234,0.2120116930689244,0.1934563092274159,0.1684377809726114,0.1434655288662338,0.127008303211904,0.1142572045712539,0.0978193070855737,0.0759191645694006,0.065394630289004,0.0467079758523634,0.0280958085850295,0.0714328469268577,0.133452036423165,0.1860989885627848,0.2462561917788659,0.3085812251378925,0.3615199860292715,0.4212294828889473,0.4841132656734981,0.5470092001384526,0.6093922574280399,0.662471328440672,0.7219910238760341,0.7848731233801631,0.8477221999549984,0.9050136384282236,0.9575024146893516,0.9877665159963178,0.9632708059769364,0.911483949091798,0.8491141377096394,0.7862212104664956,0.7254135034905183,0.6731531623757379,0.611249668956563,0.5483542800029726,0.485461083109278,0.4249792997024975,0.3828639514623857,0.3342233171309128,0.275024006274907,0.2121381170675609,0.1492421826026078,0.0865291300450348,0.0455429287136861,0.0573190211406364,0.0606827024936889,0.0777136821263293,0.1043097802972501,0.1421829328556603,0.1778937664254765,0.1927215407432667,0.1770214820969529,0.1515435567375527,0.1373928095317929,0.1195545486840172,0.1138278307314073,0.1137858773738602,0.1137858773738602,0.1137858773738602,0.1137858773738602,0.1135481224687628,0.1051679824905531,0.1017796822291186,0.1178005695196713,0.141489805268923,0.1685351113995215,0.1913604403424691,0.217522658481458,0.2174704484837795,0.2012271173113382,0.1781335024733481,0.1631228063105174,0.1410703523376586,0.1177556517839195,0.094343265038836,0.0848459313272913,0.0728528455464969,0.0535229362110705,0.0316696366780271,0.032978756667005,0.0789636900736643,0.1331031757213647,0.1956284719791199,0.2515690913938093,0.3078915831110356,0.3706961314971742,0.433591459838389,0.495420516156924,0.5476618770011239,0.6085628866878383,0.6714559892038396,0.7341966367137358,0.7894293190589088,0.8464893612477438,0.9092967041057074,0.96474018207046,0.9678474335799048,0.9210378153110486,0.8584908226597943,0.7991077783250176,0.7459242255587943,0.68350790478994,0.6206119703249873,0.5577161675753848,0.4953241652592997,0.4423136660621365,0.3827393867650022,0.3198523445772125,0.2577737475636472,0.2052654955264716,0.1448939379695057,0.0863491782943084,0.0623847832245849,0.0719495322175221,0.0830130579152177,0.0996018843654917,0.1394570272700206,0.1815478145341664,0.2064906858894257,0.4712772183693237,0.4509799136218468,0.4205810545893138,0.3864711387805739,0.3574045093675777,0.3531578877273893,0.3489768890522744,0.3143827725277091,0.2493004764353714,0.1811082046669452,0.1241209971870045,0.0829393114719616,0.0222850825522988,0,0.050531581311124,0.1076306816647472,0.1486697612221248,0.2150145929191085,0.27025671817022,0.3104896990769301,0.3609093321977776,0.4143521211526435,0.4413712591631791,0.4736115884792506,0.4997110231140436,0.5146033331054993,0.5293957917712895,0.5174345389921533,0.5139661805723912,0.5139617132148269,0.5140918810359683,0.5250055547449919,0.5340105024536652,0.5342988142840985,0.546291918694183,0.5541426289177784,0.5540326665352024,0.5428065340676755,0.5201897079909736,0.4986358154161041,0.4946200596016408,0.5152034845011322,0.5408281783115862,0.5636542638997115,0.581916708845124,0.5748787516529132,0.5708994064223636,0.5552355879260413,0.5510976873458846,0.5150314801246507,0.4575780813916981,0.3976438833843696,0.3410148363925223,0.2753858022657707,0.2274308104026778,0.1955589063727369,0.2079810364351546,0.2547217007627917,0.3193681537102897,0.3719963221793212,0.4368324300307722,0.5050594524705518,0.5665691021340127,0.6217428225782253,0.6897824035751494,0.7580454467726567,0.8260320447309106,0.8818971970054355,0.9425234304944484,0.98149348436518,0.940792078594562,0.8763285130368104,0.8251608010786557,0.7744204749201677,0.717876403877312,0.6721682337378185,0.6289604429740772,0.5944059893022899,0.561949498729799,0.538715323290619,0.5174922744663464,0.5111665214275098,0.4950643806333556,0.4810716350393766,0.4584316000602366,0.4319717577011603,0.405943172901591,0.3770455510702231,0.3540682680396791,0.3263758075930028,0.313134902450964,0.3171397123230122,0.3385361087257381,0.3618842135614724,0.3908746571577497,0.4187906748552708,0.449758872400253,0.4705876152029051,0.4818884445990714,0.4928713505216033,0.4776781182324074,0.4737655959386386,0.4737606138721837,0.4737606138721837,0.474065871330156,0.4867561080680103,0.4938434779734932,0.4938611635435057,0.4938611635435057,0.4937515470804667,0.4830682350620483,0.4586253329689316,0.435257065407344,0.4364628037178684,0.4642353425809089,0.4979049749154498,0.5226794627336004,0.5329271398576805,0.5197496658882779,0.5191247924039604,0.5127204327195982,0.4960699015415506,0.4742261895827875,0.4205704868335798,0.3687966270493468,0.3039877571177758,0.2518982594896761,0.1872842249963171,0.1417986526634491,0.136813522065359,0.1730377285586697,0.2382696708440783,0.3061756902534283,0.3612312695021571,0.4229732920624571,0.4912205030964887,0.5594722769386475,0.6224642060802927,0.6763670565956947,0.7441721262151959,0.8124350259733903,0.879945221291127,0.929892473612704,0.932535512202004,0.8776412185283635,0.8256176659822003,0.770892102014908,0.718876702934192,0.6635577655028455,0.6142814978800222,0.5688075982315008,0.530999987751628,0.4994555116175974,0.4775290254801376,0.4607137905362268,0.4536979179460414,0.4520111947970506,0.4274378866286117,0.4088059895866656,0.3869885611849919,0.3631686033776198,0.3306117069448642,0.3022229670465393,0.2741745524954462,0.2727553381681815,0.2731548738212339,0.2901929024891938,0.3325160740901038,0.3724433084741694,0.4116282275543801,0.4345011096233797,0.4544741016256832,0.473947444587302,0.4898034568815039,0.4764207076477311,0.4737637476658021,0.4737606138721837,0.4737606138721837,0.4737606138721837,0.4737606351064025,0.474123495767595,0.487398620443372,0.4951420146035143,0.511000756256744,0.5139211998486766,0.5043107550525656,0.4760514517501297,0.4560137055266686,0.4604306987123374,0.4913161036510289,0.5182148279909993,0.5394254660871369,0.5362275657334763,0.5329156852742019,0.5168009132159201,0.5131043482921251,0.4960106887012578,0.4526331863594617,0.3950085671881793,0.356923096185441,0.3083510930494042,0.2512572654593903,0.1927162570789655,0.1434151862817572,0.1178966724275372,0.1377525705191189,0.1852639958385724,0.2405334115319388,0.3085294624121988,0.3689125796722377,0.4251771996875497,0.493269970906113,0.5615329772687518,0.6293932815644125,0.6839766098814288,0.7462357339475467,0.814484637222328,0.8827476479184799,0.9506149679758876,1,0.9759098243460288,0.932072955719228,0.894467056197199,0.8292103351111986,0.7723570177318786,0.7155267468704625,0.6631895091821618,0.6030632561041154,0.5632852054461774,0.5180702294548967,0.4808313804064195,0.4725713806536458,0.4560015607066621,0.439126200015878,0.4335750962261251,0.4329163135808471,0.4168517399962619,0.389586430971311,0.3583072187582763,0.335238229467707,0.3079238986768691,0.2931388362612845,0.2929681148890828,0.304041035087859,0.3288733846243827,0.3615804846371242,0.387327082904207,0.4207768895288106,0.4511098116241441,0.47137561003297,0.4737599222433561,0.4737606138721837,0.4737606138721837,0.4737606138721837,0.4737606138721837,0.8158009701313936,0.8191431745134624,0.7989508556156762,0.7900716251417595,0.8203236317688501,0.8458956722355025,0.8529685206514585,0.8057588195014295,0.7363036009643199,0.662024938606759,0.5855655876698932,0.5091381123771362,0.4359219235045691,0.3645979883989779,0.2883553739312285,0.2119339132243253,0.1388805603041143,0.0676550410772267,0.0086666060364999,0.0315947327493455,0.0987321964302718,0.1736496976084209,0.2500065219007377,0.3222495230223804,0.3944850078197351,0.4708528872694842,0.5473257223740285,0.6228326162547505,0.6929330202731935,0.7680489313932995,0.8421726445947851,0.9057997734774528,0.9060035955551234,0.8716598706252928,0.8507278818771514,0.8261286067269055,0.793999341569957,0.7600039336337546,0.7366978181635379,0.7421785618081883,0.7765862848711474,0.8042153453008031,0.8022737390490312,0.8014570457152091,0.8062258734540831,0.8116637240725012,0.7930879062428059,0.7798115395249593,0.803760969990288,0.8360173028277306,0.8448584042687156,0.8034965354994211,0.7347429057882854,0.6634265721067371,0.5922616224539176,0.5166464063021555,0.446320518375417,0.3717708787546397,0.2953240068732986,0.2210368892917078,0.1505524630254578,0.0745882453860413,0.003848033444184,0,0.064522161123391,0.1404797206115472,0.212397743622832,0.2849640201374462,0.3613544005236397,0.4378283271117217,0.5135725896657134,0.5837743080329109,0.6585729557316099,0.734991319146672,0.8082153649388201,0.8786302116457069,0.9187843210481088,0.8825636315195865,0.8521236470465391,0.8265320722594928,0.7979890075733828,0.7637430008483309,0.7341573385754289,0.7258780180634571,0.7544978419303269,0.7898472800316835,0.8042601611566681,0.8006050832254569,0.8039438288289681,0.8208804374344499,0.8288568396952211,0.8203332906112745,0.8021310874782682,0.8129000855749452,0.8410720069415528,0.8481596311439025,0.8052503446000084,0.7366656422195604,0.6667807797923097,0.5925643421568744,0.5196869721969842,0.4480743122690248,0.3717832034227974,0.2957594507180526,0.2251745127297703,0.151030795751119,0.0757439873375532,0.0255148977977449,0.0545987682533233,0.1250825850485101,0.2003142179057216,0.2703823295882693,0.3457151496694758,0.4221868931602203,0.4986620267604938,0.5751371603607659,0.6516122939610381,0.7280754784831837,0.8026245846419336,0.8719186212009274,0.90959353650181,0.875566877125929,0.8439379031690241,0.8243020664469457,0.7998638838263384,0.7707703085925174,0.7475670102974971,0.7492785367121851,0.7782270151893215,0.8144155956348539,0.821373601293376,0.8121465919648082,0.811686615450658,0.8245592327859411,0.8341625633720772,0.8255970036086343,0.8035684277184759,0.8088842830705857,0.837922386623701,0.8495206881619971,0.8194507769428881,0.7527648966730799,0.6825864622064802,0.6146301317672315,0.6166723355595277,0.6879197033716843,0.7593687526893157,0.8319721504248992,0.887456319832766,0.8802504272695385,0.8693791627821733,0.8438682345175813,0.8311376474887352,0.8518668500317444,0.8633671641896171,0.8554599209225712,0.8423390302532886,0.8387917836642828,0.8441183136398597,0.8416898263200593,0.8114304528740438,0.7795100779176295,0.779451813448447,0.8094372674931741,0.8352338818413282,0.8570802777129233,0.8818426299785044,0.9248750313229362,0.9769923678537724,0.9827449269932536,0.9223035199091482,0.8518167178563364,0.7800721080176719,0.7051644270731924,0.6409449278775355,0.5937309132176715,0.6116056845302572,0.6828302140465575,0.7528321116446702,0.8230717683352836,0.8839562044676775,0.8891835915886722,0.8726928190465678,0.8543609805475861,0.8330298998732822,0.8456963571518198,0.855465708423688,0.8502069621708713,0.8329040460763052,0.8232913362925415,0.8311839737836278,0.8260119741926434,0.8010522017732541,0.764024330673826,0.7603088657513662,0.7898871307646497,0.8233223825531323,0.8514173601808969,0.8766497781197963,0.9112654998320364,0.9620982388592262,0.9993431257765109,0.963410211412585,0.8954981217181611,0.8257125646575211,0.7507114595808712,0.677181039807161,0.6061994123421958,0.5432558675872,0.5698532072959425,0.6446613018005048,0.721087484381043,0.79428265634876,0.8614654845256916,0.8898390444321321,0.8723762707688699,0.8558032349390662,0.8248559486864538,0.8230615650646512,0.8425991641307097,0.837294787561761,0.8258557052244365,0.8244649128298301,0.8285135343220521,0.8128694985914561,0.7772500851782339,0.7655171195822196,0.7868043658847014,0.8228185604886186,0.8532364879607132,0.8754215310294483,0.8978755561318993,0.9415161480204968,0.9938376080082908,1,0.9418758742004018,0.8729371485501115,0.7979743656598554,0.7271676790523464,0.6533251222961128,0.5769153007091997,0.5108557284102427,0.530584507631554,0.6042352767902351,0.674815375396329,0.7480035645059725,0.817885618485856,0.88449691600177,0.9022099747977932,0.8796867829977396,0.8602494152130556,0.8288679635404267,0.8256691298769595,0.8436945117145113,0.84130941434089,0.7920662549667421,0.8384313168884356,0.8551263634666719,0.8546873605646323,0.8506209876151953,0.847332652543753,0.8392185358997448,0.8095789127594042,0.7678613284055031,0.7498431459379642,0.7798262350301481,0.8142117734819212,0.8486938774686061,0.8761833488879822,0.9037858634878576,0.9474100825942028,1,0.9874089599922038,0.9168497986990856,0.8388661208412114,0.7558269297748896,0.6773850305983224,0.5933769845796499,0.5527541504882938,0.6133604835947333,0.6962356260707374,0.7813654764500673,0.8598025701205267,0.9348106638537615,0.9757327726341768,0.938159271495384,0.9005130823054857,0.8676756098488603,0.8205969998818474,0.7867529492648617,0.8119788083568169,0.8506365781962328,0.864120219436098,0.8564186033068053,0.8475022246404507,0.8449733254599474,0.83349384192381,0.8009247933675223,0.7600787589907319,0.75795641889953,0.7890528811605779,0.8223922333634872,0.8500304693261358,0.8699528043290234,0.8991461467976922,0.9481229090441016,0.9518829973170015,0.888618870889621,0.8090680605332559,0.7307684034700743,0.6464083212655314,0.5671166065991837,0.4848243653880697,0.4266625854019563,0.4770126996634976,0.5621402428968449,0.6470163580667694,0.7254610056879449,0.8084573542562457,0.8818492509896037,0.9127606322886164,0.8812064520435086,0.8580707935676026,0.8194235721450149,0.7814629690050505,0.7954310633067525,0.829185062090914,0.8484946186843607,0.8518464020065992,0.8456537848404331,0.840949945172061,0.8430686182998308,0.8322856262610063,0.8122288578423025,0.7694719073476206,0.7375012629016218,0.7554353820057924,0.795632388662681,0.8260785098689885,0.8539278008980045,0.8777984973487818,0.906642468507606,0.9618211595134708,0.9677338350757824,0.9034666351464524,0.8225634367239452,0.7440245170496271,0.6619635678389633,0.5828279046046694,0.4980889291326897,0.4468372719041267,0.5040988881912636,0.5895489439802042,0.6753297733843544,0.7605029749028553,0.8387536493545158,0.9098067893511584,0.932324203315251,0.8892402436425804,0.8581489468016941,0.8211412480937168,0.7673612195104325,0.7506548740482772,0.7884599412344251,0.8296627962052199,0.8414942524781659,0.8480462423410158,0.8457011645392356,0.8439070764622796,0.84379254857916,0.8198017764923007,0.8150821083464759,0.814871264740731,0.8145851034283045,0.8159133870849822,0.8112198224568901,0.7832359471389017,0.7371967393135779,0.7071736798071568,0.7228478841052981,0.7807753297487008,0.8241022764062405,0.8459656127142308,0.8253171739317733,0.7517619625764682,0.6670807938473551,0.5874350412507627,0.5052613790988534,0.4195285215147444,0.333784213248415,0.2512991175504444,0.1719106403229124,0.0865463380097838,0.0086691591352238,0,0.0680691857718273,0.1360914385178468,0.2048644419926766,0.2734645036438285,0.339741794067478,0.4209996269181084,0.5067093499711819,0.5896755965680667,0.6686686594712015,0.7511417843803094,0.8288429653990099,0.8738814440072262,0.8558294319528565,0.8351776255169254,0.8058061776453151,0.7768363903198445,0.740874978700893,0.7032632976183761,0.7028716553559327,0.7403690663095301,0.7814628506829167,0.8059785619286426,0.8138202793178191,0.8141668169427703,0.820809721020608,0.8207922833631451,0.8086192889685226,0.7711701374369866,0.7451856376994381,0.7453388700768613,0.7874460104274905,0.8287913195574146,0.8420299970821306,0.8045057669737732,0.7342228488091651,0.6587579570145807,0.5732943592067024,0.4875135138679349,0.4023303381849499,0.3235549669041688,0.2402368894424096,0.1545032042025389,0.0718968451196016,0.0054498289231855,0.0199856565020709,0.0935220358376707,0.1763248081550466,0.2605814121897447,0.3389290950558998,0.4235452298195961,0.5067210077271516,0.5855892815210106,0.6700585657230684,0.7486146888276171,0.8311124324734849,0.8745747710750402,0.85264779188405,0.8312357464353073,0.8046813297009154,0.7733515192068483,0.7383142063387012,0.7112770060090923,0.7181372325685409,0.7592596838640471,0.7967390864672812,0.8107630868864732,0.816930014850199,0.8222099661532047,0.8281316085662687,0.8060789552437937,0.7666125564686195,0.7386748877621259,0.7620122526973889,0.8161962946772574,0.857866349932801,0.8774590678144838,0.8785505126599307,0.8091271299227061,0.7309020722883159,0.6463771293472871,0.560812121123127,0.4807581433683325,0.3990554857836639,0.313340076054257,0.2279555370837032,0.1487492768975816,0.0702913768672331,0.0449437489589396,0.1088817921287164,0.1906839287839401,0.2700372290976653,0.3554555221848232,0.439888621307906,0.51822042084904,0.6025671270803967,0.6831028846588605,0.7639989033246257,0.8434745273717119,0.913033876302408,0.9034050257453354,0.8676318261932621,0.8429102852413737,0.8128962531399844,0.7789560699976632,0.7436189359885501,0.7158200878078831,0.7279047255132542,0.7718324364248459,0.8076709956702954,0.8207502633432595,0.8233525541678819,0.8283917423522751,0.8190133634950045,0.7870438868523293,0.7446960112876757,0.8721154267836679,0.8751928615731961,0.9166329820997756,0.9452526133790586,0.9458403021116002,0.9458403021116002,0.9458397840437724,0.9424833488176514,0.8753931404596198,0.7779843819105938,0.714343662161629,0.6657690367193654,0.5952076182041175,0.5242666319720835,0.4514504564924895,0.3574111859515527,0.2854019609715168,0.2101947455475183,0.1327021332925975,0.0625122860379425,0.0177274181617708,0,0.0587377535906261,0.1608647873984408,0.2465448506561971,0.3073106276453927,0.3907972729129305,0.4613226185832797,0.4775742007475694,0.4120445715218883,0.3649160629324672,0.3996313970756686,0.4603211813053454,0.5330740518260271,0.6342355761311653,0.7349093576634962,0.8120068966412646,0.9168638062339394,0.97209903635739,0.9262773982044354,0.890123882175085,0.8725765969745805,0.8929884010058773,0.90830707595482,0.8842788898795773,0.90113398346661,0.8857819583162723,0.8996241881729565,0.8881789640448732,0.895673578399883,0.8816572679296995,0.9041738076059032,0.908938595171266,0.8954896076062173,0.8890937333133326,0.8853749969941278,0.9001342981622855,0.8875341626855446,0.8977937976128105,0.9326647642391386,0.94607503695988,0.96654659927297,0.982650199662416,0.982702936494718,0.9827026530236428,0.9807801193664804,0.9498144647422456,0.9458439868265804,0.9458403021116002,0.9457856195609988,0.9293498238915676,0.9092477950828456,0.9158373397038028,0.9446942917906168,0.9435669967629448,0.9125132528683846,0.9122222212460702,0.9428660203221106,0.9458397840437724,0.9458536639049432,0.9542631562562942,0.9833255447189044,1,0.9804505486393076,0.9490726074317912,0.9235254184110272,0.921216200278944,0.945396862955941,0.9458403021116002,0.9458403021116002,0.9458403021116002,0.9453325076612656,0.9172895686509772,0.8385409984918653,0.732253859271581,0.6255690610300375,0.5200299089957703,0.4422611473048006,0.3659708617722188,0.3645801459647018,0.4197725396534153,0.5201804973083846,0.6218101818348574,0.6941031200018921,0.7680253705201627,0.847629316119666,0.9316963178484724,0.959798218792077,0.9177458392921798,0.9106590798612988,0.9260363272524604,0.9064525113420724,0.879848523045843,0.9059891897013008,0.8773166365610079,0.8896739440411379,0.8839140408648118,0.9027049175162638,0.8817411424837536,0.881371307864808,0.8721323182785827,0.8718471465635389,0.8487246965191115,0.8353072616344566,0.8382378304673548,0.8685273971701442,0.87212826330809,0.8807773177976088,0.9037043511178222,0.8812441869225411,0.8964046722983872,0.8873729623457125,0.9001837115543792,0.8729753161145108,0.8724536559559022,0.8951603174947369,0.908112315673117,0.883192232092032,0.9020622626777683,0.8846951734554844,0.8986710633837554,0.879345502902928,0.906881983491722,0.9089090425792667,0.8904622384378111,0.8936265154840664,0.8828138947497441,0.9023478870504328,0.884361276631803,0.901382479007932,0.9131907352677012,0.94409272909357,0.945840057739983,0.9458390607037864,0.9396240042832532,0.9100533811601252,0.8814999414290217,0.8735771525806717,0.9028266714761636,0.937782465121498,0.9458386501594704,0.9458403021116002,0.9458403021116002,0.9461494407288028,0.9669580368627696,0.9333227093585644,0.8431152969689384,0.7588131730945458,0.6524571002271369,0.5457722995418752,0.4390890726098293,0.3401099687421247,0.2693802820898643,0.2480496673902221,0.288537081610972,0.3710345595202415,0.4494939651763516,0.5386166114943922,0.6252088298859979,0.7282851447269083,0.8038954934120657,0.8967607546279233,0.965340271947584,0.982665051843674,0.982702936494718,0.9827023402279726,0.9793782715646088,0.9498187559012924,0.9646477242482652,0.9464737294557484,0.9458403729793688,0.945778809546959,0.9281803303975656,0.9092035522429284,0.908342885508694,0.8841953008189982,0.9015529922325278,0.9087721397252224,0.8865700816622706,0.8984087251878732,0.9093004549664244,0.9321900223769974,0.9458021581665284,0.9458403021116002,0.9458403021116002,0.9458403021116002,0.9458403021116002,0.9458403021116002,0.9458403021116002,0.9458403021116002,0.9461592353291276,0.9682162974533391,0.9774950950868072,0.9481753818094588,0.952314084332353,0.9700310466778488,0.946247386732046,0.9458407175433496,0.948972654824777,0.9822036064257,0.9964079682214582,0.9542320300901936,0.94112641792805,0.911494642190286,0.914993967293274,0.9598421632197364,0.9593499410897284,0.9463018657408168,0.9710575027498312,0.9826764668594316,0.9818116494897886,0.9487569231927528,0.8651130121396635,0.7591676213232006,0.6768565136741609,0.582352178741889,0.4980214713773492,0.4056826200915591,0.319669996178936,0.2863286368927333,0.3256493033418417,0.4082096695397483,0.4867694210041593,0.5757405994590039,0.6578112680390662,0.7336867778871055,0.8389184051281351,0.9335156653683,0.9592317267408408,0.9169952247780078,0.91091257894566,0.939711626338358,0.9458390802535162,0.9458403021116002,0.9458403021116002,0.2525028830298073,0.2811630182025884,0.2872469079844841,0.2517088187285485,0.2204370294959461,0.1988455270616274,0.2063684931841451,0.2296915303265838,0.2502344855255092,0.2744679930659743,0.3093346596861381,0.3482154808286939,0.3861479454129719,0.4201382589317344,0.4628982204885628,0.4948072493342854,0.5168846311225916,0.5130805198337305,0.511139767409156,0.5112141737737177,0.5181639107547507,0.5351742993019883,0.5485297191908749,0.5572658604533758,0.5544862985160504,0.5349235867368893,0.5288495281169496,0.5414540632350431,0.5525290614361213,0.5718149239798216,0.5742842629035945,0.5690434626085807,0.5349406579846163,0.4842268557796725,0.4371764359989867,0.3844107690594485,0.3376195699696205,0.283792794547788,0.2328412544798004,0.1844279657200835,0.1297867935387344,0.0750519480353535,0.0261948075794022,0,0.0287237299366156,0.0761123922951636,0.1306539156416399,0.185474569607396,0.2373377785671537,0.2849718506308876,0.3394651763269332,0.3943003264535039,0.449135476580075,0.5039700101172826,0.5578990817120748,0.6047188469389813,0.6579495891595377,0.7127789976178973,0.7659325988643739,0.8127545878955826,0.866758324405221,0.9202667161493012,0.930514294884788,0.8859041236484118,0.8360152957814309,0.7890790304709097,0.7382517271065734,0.6917505358543312,0.6453160200000478,0.5997245130652216,0.5574393359349854,0.522015793795453,0.4950676727727796,0.4747666109989843,0.4496091420406269,0.4250591845637834,0.3944332537835548,0.363927320574964,0.3269551256869822,0.2883251814121681,0.2529510070018073,0.220395425016544,0.1930985334567958,0.177910550889738,0.1970699801947146,0.2309712142196782,0.2701081676303991,0.307794488484836,0.3485792668785532,0.3875856420040566,0.4268187440219666,0.4619624174141532,0.493946120052519,0.5102256929302058,0.5078277568939935,0.5009539232192717,0.5056333411162488,0.5189433415087366,0.5315269178252271,0.5436813938672176,0.5527205772038046,0.5486221548769821,0.5303238175621379,0.5266955614543369,0.5454599700080542,0.5629139481842917,0.5823500516345685,0.5848165125331568,0.580512384238193,0.5498957612829878,0.5029556517191944,0.4544093885637685,0.4039491101575327,0.3541490118737644,0.3046806475029278,0.2499451420841574,0.1953094651880016,0.1469083060953631,0.0959606315279493,0.0463479218234803,0.0377034306362116,0.0842083986221466,0.135355048341194,0.1835750057734617,0.2381770564018737,0.2930122065284446,0.3477332475174786,0.3970398336279426,0.4470547277267236,0.5018234672137376,0.5566586173403087,0.6114937674668799,0.6662851998270884,0.7169602721330823,0.7655487458847408,0.8128189945429287,0.8546656365343546,0.908453957592952,0.9557881335845904,0.9999999999999998,0.9832118693594658,0.9307852051940892,0.8838019779170934,0.8310735652955732,0.7820476631410951,0.7323417443984042,0.6855552043462478,0.6398354010544418,0.5943391265779048,0.5543102898082566,0.5196706600125376,0.4953054867389119,0.4761667579013326,0.4520268195947692,0.4203739746237169,0.3857252956619936,0.3497939690581613,0.3173525560376029,0.2782297485058591,0.241987679010426,0.2080561415526116,0.1725317829431818,0.1555746740902313,0.1726888799302834,0.2021985506869206,0.2389316127049867,0.2817283331747497,0.3242909183863052,0.3716463491078303,0.412115505810471,0.4489207775232213,0.4846269550919329,0.5134349661419677,0.5232425749458856,0.5189925811381695,0.5099635654946284,0.5040974852071378,0.5197569241187396,0.5348074741079116,0.545904902360711,0.5587985323995599,0.5696849274937037,0.5673752713569626,0.5461722642477382,0.5390125223999995,0.5539808442336549,0.5724645884654842,0.597184440217335,0.6015134178159345,0.5947632699418726,0.575873947148986,0.5333828689782258,0.4921359597888561,0.4518846840548185,0.4033081495400201,0.349463635771994,0.3026416467407844,0.2494880454943091,0.1946560826412395,0.140543868304936,0.0935988075830478,0.0412328024030019,0.0090898964039409,0.0333393450069889,0.0830843603717659,0.13137018385281,0.1859845641127286,0.2408197142393,0.2956547672811211,0.3500415518186428,0.3974431956519109,0.4496399190089108,0.504466125051164,0.5593012751777349,0.6141364253043038,0.6689150363148819,0.7191446303905316,0.7682299868544076,0.8229102591034227,0.8727518434465693,0.8843257133684339,0.8393372041041072,0.790734195949093,0.7407884240134068,0.6939057780508924,0.6446929173158251,0.6006757458278569,0.5601855852240232,0.526261183689748,0.4991830110615334,0.4779246603116855,0.451361785286253,0.4252969000272959,0.3960080010995133,0.3633626549879831,0.3265105364743295,0.2845475649426376,0.2489710362356729,0.213705250485316,0.1781167683600941,0.1565524482574116,0.1653627785639733,0.1976145916117122,0.2371450475726055,0.2764361782486768,0.3167823518298556,0.3564513396821169,0.3985827094752321,0.4401308857005872,0.476900010335485,0.511085722682725,0.5305557430272452,0.5231116299430296,0.5142432090219218,0.5204730252769183,0.8472822480121122,0.8562818119604333,0.8387707141004349,0.82073061116641,0.836316749692913,0.8754061203637934,0.8904785577497593,0.9024477468646358,0.8631836020290894,0.7991941800975196,0.7229944972367043,0.6409220474314469,0.5598064803891124,0.4851963121283059,0.4047284669452332,0.3226053694640803,0.2405736787370228,0.1630981926765804,0.0868639852923423,0.030701810088237,0.0621410888664745,0.1378949185119988,0.216673612332665,0.2922529922514066,0.3740111006047067,0.4560538899693115,0.5336814069701631,0.6103608076564776,0.692283493007546,0.7708143336266177,0.8466577242745313,0.9223676728879692,0.9304931985582136,0.901361661843282,0.8862388394782034,0.8673198850185914,0.836994323005123,0.8056764618160858,0.7889152790294865,0.7964853715953487,0.8236110451405675,0.8356774889888422,0.8313546587203989,0.828219296932121,0.8433734222761352,0.8497930390959262,0.829088812666496,0.8124894360872982,0.8162704097156764,0.8561355961054918,0.8828181178721429,0.8861494831473448,0.8334681711782584,0.7594557677328898,0.6797668996972116,0.600218441989587,0.525138707810778,0.443578220233603,0.3614579382942086,0.2812348726930652,0.2065182391266443,0.1252625994473317,0.0441264499296469,0,0.0493404482705224,0.1266320073590999,0.2023552467126984,0.284161087277018,0.3659094318605659,0.441395134483702,0.5203760110565213,0.6024541552519004,0.6817792267341835,0.7570065860561538,0.836589186351718,0.9031721385172344,0.909015752283016,0.8863192801989511,0.8631668273650702,0.8358922084034838,0.8053508669256569,0.779512052165172,0.75792770083851,0.775380368156582,0.8106589504891709,0.8315483784428473,0.8335761964233784,0.8338193936272661,0.8431431654466771,0.8535907365133414,0.8484594362577623,0.8270060819123751,0.8215804443533331,0.8444852110919042,0.8782938656710967,0.889489931081442,0.8497790752666895,0.7775771066486145,0.6977254851734259,0.6193959067007812,0.5433615064579379,0.4615005906475077,0.3793972304022729,0.3002488255203118,0.2248805014564375,0.1432152678180782,0.065723463488029,0.0311461769654215,0.0821689952568419,0.1583406798289229,0.2352547265675187,0.3172447809187523,0.3993737979602242,0.4815028150016948,0.563631541033225,0.645261640121832,0.7204892785132241,0.7989303275832463,0.8722009342884508,0.9100534962628714,0.8908415744958472,0.8733328426120953,0.853703068531478,0.8266373314435626,0.7963906935036004,0.7766572830538326,0.7891526974212039,0.8245355754632496,0.8463045862293311,0.8492831611584636,0.8441934347856587,0.8500207703610939,0.8589690666708883,0.8632822076432106,0.8489934703024514,0.8349902328337563,0.8514706206401784,0.8845217884644415,0.8953823281635392,0.8881178392728822,0.8247464867195574,0.7492816179723559,0.7245515452295365,0.7928747062082931,0.8697589302640861,0.9427802144060324,0.9675803396040076,0.9373232934793986,0.923005286741145,0.8898162773334154,0.8656265477821624,0.8838518091397377,0.8952653681388688,0.888889091909916,0.8839966128854545,0.8753787478697913,0.8769465255194108,0.8814663660049878,0.880694301233036,0.8618942368487724,0.8276982945911892,0.8146448851284852,0.836652265545042,0.8692923337683977,0.8904691902638221,0.906383576672932,0.9306603154064548,0.9689135423832734,0.9727181311688724,0.906639339501164,0.8323181719125153,0.7554367544973634,0.6793521087265272,0.5987987949973111,0.5631244882265188,0.607485874214135,0.6625414185553161,0.7299665272266193,0.8082979598249015,0.8821755687425744,0.946609997119218,0.9493295631333452,0.9192847691963244,0.901543812367088,0.8711624016830571,0.8618616887399927,0.8815586886338013,0.882782336999579,0.881327449898185,0.8722957999681492,0.859052103164574,0.8580650833441797,0.8574307508365152,0.8410794526640818,0.8054982451458935,0.7997551537426254,0.8250856693729528,0.8522895585990412,0.8830596036991519,0.9054780011354032,0.930603558681052,0.9680595141247867,0.9880296032196836,0.9364131333068176,0.8636750325526695,0.785956474059155,0.7114372264906857,0.6308617115256713,0.5610035360946585,0.5838710794283234,0.6567966643684265,0.7365058923960016,0.8186013789481629,0.897982435168115,0.9604656329215449,0.9589409380548438,0.9227248650514328,0.9045659481842956,0.8693983203600243,0.853844567184424,0.8750889004070893,0.8823185935612182,0.872192711846354,0.8607943076440357,0.8645786578685769,0.8670292084972594,0.853225006253569,0.8275923839553055,0.8313136261819775,0.8584265435015864,0.8900922992064081,0.9091118934006902,0.9239219680430756,0.9546147459601878,1,0.9978934802236912,0.934676924958597,0.8605934678499224,0.7863289657306783,0.7060428317768924,0.6303144167488838,0.6115864594719914,0.6812651170360183,0.7606196914724733,0.8235411936399336,0.8927176785773719,0.9604643064437982,0.970906767560957,0.9349926451765628,0.9140962360297508,0.886887610714782,0.8588749678575177,0.8744970232609562,0.8870477357132419,0.8780197028216078,0.7231970483540531,0.7815480434848561,0.8257258311573308,0.823891638796574,0.834482641054509,0.833771664711275,0.8204310742368279,0.8232720799904736,0.8155383014053528,0.7992335082978288,0.7663105034717992,0.7285822858557505,0.7339015857372,0.7656144463581698,0.7926465532941598,0.8132920591153163,0.8365754891459805,0.8529981459057581,0.8739218584222215,0.92768861103194,0.9356156452857324,0.8617334177394418,0.7619706534148918,0.6574843853646604,0.5568198837563716,0.5108158508083949,0.6081024340425332,0.7247767997477021,0.8376918990107862,0.9385528144968842,1,0.9496164875870026,0.8710478001476925,0.8341484181226577,0.8134967638048285,0.7778108536891741,0.7413545370327128,0.730498950210229,0.7674704625014703,0.8179731083483319,0.8462231163192482,0.8418353142723585,0.8330507408003305,0.8273453493724814,0.8297658268418417,0.8197889905522322,0.8236021737983301,0.8066302830909855,0.7658176048409082,0.726391755324352,0.732640173445879,0.7586426593819646,0.7892807262559227,0.8217352933030142,0.8203059299355027,0.8214155907665561,0.8255359060240144,0.8496943997417046,0.8949587522243445,0.8749706229170737,0.7891605441697327,0.6890460875321391,0.584222339666705,0.5196639016471547,0.6015298260075927,0.7050240129213603,0.8154452531366454,0.91190985915788,0.9221706512708816,0.8444574861951692,0.8076313371640449,0.8080386627006035,0.7837426719259386,0.7498253306393488,0.7401103016700161,0.7619031467576378,0.7951515715844639,0.8117372908744138,0.828423191628739,0.8202164772090494,0.8216601922470379,0.814086561173994,0.8028750007398244,0.8134693112220841,0.7937886707081097,0.7773740604846604,0.7504572866699157,0.7081539303125015,0.6996794005629887,0.730363113122567,0.7610366115034304,0.7817150289060826,0.8014003918953807,0.826287445658004,0.8374970634044789,0.8761220132363645,0.92096186310865,0.8750280345902337,0.7825391159972703,0.6780459321594354,0.574769390120319,0.5481932991852112,0.6366417852714821,0.7510394538989313,0.8655603258528637,0.9225280187831716,0.8776831632991744,0.8261738951581137,0.7973680450238416,0.7692750362212308,0.7147872406174329,0.6720160404112416,0.6606142939153234,0.717107137159561,0.764829987877123,0.7871197047803893,0.7981391268323108,0.8175011764539839,0.8111767160718726,0.8107692440061385,0.8268109636854524,0.8343935555718844,0.8089869057860746,0.7676296775592051,0.7847103355081204,0.7711870266878367,0.7537530055237931,0.7509292684924413,0.7498472565031613,0.7337019452257212,0.7050957143923404,0.6539843549280269,0.6059843653003862,0.6009105971144058,0.6346561878402608,0.6865630240008604,0.7241660615822436,0.7504186631280501,0.7624288019292336,0.6892690820960921,0.5736506173270417,0.4579090538420614,0.3548256859551664,0.2426141325788937,0.1270653563332371,0.0289850911198876,0,0.0684480338448936,0.1535728059925576,0.2563629687511937,0.3714984071298493,0.4744772271387987,0.5844719722417424,0.6853637108928026,0.7745848220284275,0.7853283057846836,0.7697079298796305,0.7541765546940962,0.7292614147555443,0.7116804679902007,0.6887225089199509,0.6503905987474332,0.6262132875532149,0.6451226225063786,0.6882120619378238,0.718652276555189,0.7233465445844391,0.7461801108677308,0.7405404934090267,0.7471168742816938,0.750916108283775,0.7537453464740462,0.7616254844610362,0.7499863174055803,0.7197062387223117,0.6691121656744685,0.6685708173830802,0.6779554333521074,0.6953871238746232,0.7314953041483747,0.7368094000284708,0.7343591455954468,0.6848248818788409,0.5847754552815974,0.4753705089326581,0.3587219875557625,0.2461384104620454,0.1484218814174829,0.0891893461798876,0.1403636211254793,0.2394986199599231,0.3508880963607859,0.4560486092808933,0.5616772074181657,0.664227728565308,0.7703005279955493,0.7917168723128589,0.7710508431754364,0.7604979326031778,0.7575624339094102,0.7463633124977687,0.719074002843187,0.6942496173981829,0.6632540888063785,0.6652924754526395,0.7028485910451883,0.74401133893531,0.7672158719895847,0.7630443765773283,0.7690774898069321,0.7701761011405464,0.7745331650677021,0.7770631233901453,0.7392871879129244,0.6891170375550506,0.6617000214833628,0.6619666419394159,0.7013143446479067,0.7447635020984036,0.7690585070042917,0.7862638838081284,0.7700862729100386,0.673528436775761,0.5571441681525875,0.4438898427386015,0.3414139324749881,0.2304155202692559,0.156034266146098,0.1859285208774581,0.2870644450263602,0.3904176659383132,0.4984652128952911,0.6004032006500202,0.7042868398252788,0.802531041984405,0.8227715845617505,0.7932775049271226,0.7809379106068777,0.7600290627464563,0.7344122197681702,0.7151165599894242,0.6833282439404429,0.6632862697914499,0.644946460109963,0.6798741503909178,0.7205099655666292,0.7429774499863893,0.7511954145708679,0.7631092086085047,0.7820676796534407,0.7876564014475944,0.7729188964818232,0.7541972766283389,0.7003583931945165,0.6455140627493847,0.6872282129838596,0.7058280328908162,0.7538246506013015,0.7833743787967049,0.824112266867473,0.8664952735864295,0.9076618615597584,0.919006744899706,0.9244062272770835,0.9390838682523928,0.9176347943925248,0.8526969288436232,0.7871199966709641,0.7538667180975662,0.7133357841519814,0.6619438919241034,0.6085147566663527,0.5577758458393336,0.5190025337637967,0.5084546166366004,0.5422125613750315,0.5999622765915711,0.6494331260959965,0.6936301768857178,0.6828412856180135,0.6296486051995296,0.5624464304240364,0.4930195265847938,0.4235888801713705,0.3549264194714621,0.2963925413346251,0.2300198479596218,0.1605957577751016,0.0912112835928162,0.028806350988106,0,0.0337648819433904,0.098954279869162,0.1569371443028406,0.2252327477333697,0.294644339978154,0.3601634003408043,0.4192402139397357,0.4814024195619621,0.5056914330153872,0.5068674443819972,0.5176670581188421,0.5202249604197817,0.5344071169246063,0.5870478551366496,0.624042876584026,0.6325133131314109,0.6443217941449393,0.6727869027341904,0.7336597603699988,0.7719812612125856,0.783817721821126,0.8276803339423986,0.8861783073559231,0.949436793555877,1,0.9950618376811796,0.9665812058565456,0.9387612301342396,0.9319021262179588,0.918822630028168,0.8967177527663845,0.8677665943863886,0.8465632545051198,0.8300059256590111,0.7987132911951389,0.7800387986682655,0.7743252334271418,0.7963609827824847,0.8203039464187691,0.8466259647395828,0.8722525625277022,0.8838332469319505,0.8895430006023162,0.88368229468812,0.878605852699712,0.8890455859358699,0.8896464264165491,0.8896462268496506,0.888672148007589,0.8714713412546149,0.8408287585614991,0.8172892877881357,0.7978663674649495,0.7926973003032471,0.8218481698379594,0.8566633364470362,0.8960182717685514,0.9281833409231566,0.933974499070434,0.9432205968002916,0.939168430985577,0.8777969186461654,0.8198454855542643,0.7524281857169828,0.6830007213050502,0.6135700748916277,0.5441508346827963,0.4783421832466845,0.4194564798333999,0.350576847620917,0.2811463060819352,0.2117209393132813,0.1448789059353168,0.0869718736872997,0.0404598052617395,0.0575667228608725,0.1121179853502778,0.1783379432576792,0.247500187328111,0.3078948182014824,0.371932504661246,0.4413219986812882,0.5107442921217027,0.577003196135331,0.6356086221584811,0.7043134051892546,0.7721898081030023,0.8301123248227791,0.8978755051465259,0.963301116780245,0.9707662223425872,0.9473161228779828,0.9341920188075284,0.924695082596786,0.90467114509245,0.8907199594085484,0.8782527870069163,0.8560761460537054,0.832116604199705,0.8091807700890294,0.7835101468909778,0.7776464078912717,0.7961925831330903,0.8254474300730843,0.8551395156019876,0.8809874520981049,0.8966215051024533,0.9042654801779566,0.9022680670833112,0.8909150143097779,0.8913937417984568,0.9029161605360668,0.9043748266747786,0.9043754701762065,0.9032545297059008,0.8824122043414389,0.8460092914442368,0.8309227121995213,0.8308697852237934,0.8416051212212805,0.8741661608144073,0.9077350697944172,0.9299974203283834,0.9339031852733513,0.9387110438559488,0.9094339551989784,0.8415424851263782,0.7807595003654919,0.717147672628816,0.6477655346892535,0.5783348882758301,0.5089239953200604,0.4441047930864896,0.3843861427684787,0.3153417658795603,0.2459129970241018,0.1786355513015891,0.1328350722477997,0.1364292357235621,0.1880425726791781,0.2515099874279607,0.320885432172076,0.3887943159967517,0.4467340326642153,0.51445084852761,0.5838793523064041,0.6519384603441325,0.7099577267696384,0.7774427504667134,0.8453539960502212,0.9031501511390284,0.9538490348639614,0.9447855590403332,0.9337514645232146,0.9175420283693324,0.9030305771914122,0.8835018000931769,0.872684342892788,0.8485901164335417,0.8225325650311834,0.8009850184496607,0.7803048363942375,0.7741656196939362,0.7960748453595836,0.8238203198185561,0.8529155943024174,0.8802563770551961,0.8894905207655137,0.8896464264165491,0.8896464264165491,0.8896468856240554,0.8908542012822851,0.9005862312440831,0.8929045970910034,0.8973143258416392,0.8693475985043357,0.8346804770967613,0.8031425375155088,0.7776938686441706,0.781747012710257,0.8151532052902897,0.8557129117793414,0.8950399879236208,0.9180938616033858,0.9253272112222306,0.944355379062154,0.9446340573291964,0.8917468135635573,0.8229016014568784,0.7534710945366441,0.6845121098276765,0.6253871233037587,0.5598899642479145,0.490477972140376,0.4210473257269527,0.3516166793135293,0.2823903610082348,0.2215068182300796,0.1583346935730227,0.105996435912822,0.1052018649718116,0.1565940815229278,0.2200593611253845,0.2806320105000426,0.3498260386822365,0.4192566850956596,0.4886873315090798,0.5581179779225041,0.627548624335927,0.6968494235971479,0.7586602465735197,0.8211321993607323,0.8845194334728044,0.9452942757260564,0.995349274004353,0.97273848681591,0.9454385829549068,0.9215893971339528,0.9077473301223198,0.4548063966820548,0.4837790040619618,0.5203617483538481,0.5564267130681628,0.5768021680749333,0.5555842572370226,0.5657285069861799,0.5738774199283496,0.592030884566521,0.6011614308490341,0.5704058882901251,0.5466856416505714,0.5193029144634216,0.4810390973623231,0.4707844230424864,0.4567298313581425,0.44902199520233,0.4748473568993863,0.5146204848993439,0.5535807165424493,0.5958298464540106,0.6352543781025017,0.6700485755356125,0.7038776801582811,0.735421641346431,0.762610880139053,0.7776017643068045,0.76692216066956,0.7594880135513513,0.75127596012145,0.7528878541243678,0.765007349512455,0.7780404249977304,0.7868322584605156,0.7908494430356396,0.772087127400199,0.7658612917090712,0.7722925138476746,0.786305879581713,0.8145429306783494,0.8337068606044076,0.8357081831832021,0.8227835120949913,0.783971300941458,0.7367639703480595,0.6876915609023673,0.6400069959888466,0.5907196889987125,0.5369888211302063,0.4836767405274236,0.4376165785072634,0.3863559768612958,0.3331003144138051,0.2893586268313368,0.253946677447463,0.204705384487668,0.1591952607576106,0.1079772901401123,0.0697274242153389,0.067506595861615,0.1049286700108984,0.1579101671298839,0.2116861320123035,0.2653451725353362,0.3134498156366185,0.3623736179948149,0.4160864886268285,0.4698627993319431,0.5236391100370588,0.5774154207421736,0.6311917314472888,0.684968042152404,0.7387443528575188,0.7925206635626347,0.8462969742677493,0.9000732849728643,0.9538053916857344,1,0.9901971860561174,0.9480115514426322,0.9049872676829178,0.8620602541975011,0.8237865694704603,0.7947132663985608,0.77404777380225,0.747471536680822,0.7261774183461738,0.7054057693875322,0.6823924250854789,0.6531490925525942,0.61983836990235,0.5901852942458963,0.5606075599345535,0.5350846740772688,0.5293292272929324,0.54740030705448,0.5742335504010958,0.6059263455302992,0.6397642366313314,0.6720082891412218,0.7025944604950265,0.7254571309768916,0.7288170812058117,0.7222195215130289,0.7183749704324338,0.7193272580299048,0.7313690615581514,0.7457194616144436,0.7581886321280711,0.7643127314518541,0.7594225032720963,0.7435993195090207,0.739922292489966,0.7486589937641461,0.7738632576859066,0.7959843120853527,0.8080190989365468,0.8123112530680543,0.7907929545851673,0.751695834993555,0.7084169247937606,0.6577487588069018,0.6043213926463953,0.557945998105664,0.5071381708899136,0.4570399581732374,0.4201745753431201,0.3765468082007908,0.3251564040031975,0.2797387344378714,0.2277072123245291,0.1815739977274812,0.1305919777314499,0.0878781290501016,0.0914978515357187,0.1243295060543412,0.1696404268505185,0.2198929606701973,0.2736485321690174,0.3274248428741326,0.3812011057527047,0.4346677874891964,0.481343505618661,0.531842990875407,0.5856015101937717,0.6393778208988867,0.6931541316040015,0.7469304423091181,0.8006766288332949,0.8506962532007056,0.8977793195772004,0.9510875399623866,0.9835368638544644,0.9507650569794068,0.90724120009385,0.864296035627347,0.8265414127315673,0.7925518764306398,0.7694008668434102,0.7461419472304629,0.7269725335857167,0.7054971805399759,0.679290956539176,0.6530722066025876,0.6208048074498762,0.5890202955633816,0.5612920035488196,0.5326231139703466,0.5263094036296081,0.5404415338044157,0.5679556756255761,0.6038476469634593,0.64162187180025,0.6751768619458502,0.7091614683067187,0.7336768020942739,0.7482378586479697,0.7441236189553089,0.7397939954181734,0.7397556538565777,0.7414798647665184,0.7504261046324372,0.7593734649604729,0.7645061438183633,0.7653894323404922,0.7435733838307852,0.7301494433030622,0.7311195725813078,0.7470290365622119,0.7716501939906433,0.7796779789771815,0.7798344301989453,0.7735045131827691,0.7400746845693156,0.6935123161243255,0.6478875419142276,0.5960497539237488,0.5430403546953717,0.4973631189091039,0.4454294541020491,0.3934780082573013,0.3478100105291484,0.2948266258871284,0.2445731946761997,0.1977019431245177,0.1442767987188427,0.0961026391367514,0.0473718071207076,0.0028451015713903,0,0.0450641738474808,0.0908401463180832,0.1424239931184381,0.1961955319731254,0.2499718426782404,0.3037478824667643,0.3568864124832227,0.4026133899856938,0.4543763857653458,0.5081485099978811,0.5619248207029959,0.6157011314081109,0.6694774421132257,0.7232537528183407,0.7770300635234559,0.8308063742285705,0.8845817364340771,0.9364127464875484,0.945200050452252,0.9010212397721198,0.8576724725030562,0.8171919428746293,0.7830387328213311,0.7523408836029171,0.7308898195391664,0.7087635549172406,0.6890627003012393,0.6705091945088681,0.6484251339876554,0.6154973089290141,0.5827099354059959,0.5525224416591801,0.5245271827467586,0.5152157841289675,0.5241776116141483,0.5496494982061022,0.5792207023291289,0.6132140326183406,0.6508501466174212,0.6863776210186618,0.7179648392483586,0.7372842991275645,0.7378373691794264,0.7363528662050536,0.7397254258509955,0.8499962189931016,0.8546134727274297,0.8373123889741501,0.8252756795455731,0.8524605077126843,0.8825383271538285,0.8966719724970464,0.8678173536757532,0.8006437971871476,0.7255438522145992,0.648762612058271,0.5719835191476199,0.4971165880664676,0.4266254367416977,0.3504766883466955,0.2736881692670859,0.1973332807311095,0.1265149764485059,0.0530153288611635,0.0061037949853961,0.0448679848222187,0.1161814650666666,0.1927435842761792,0.2655571911836833,0.3376805270256521,0.4143235493961119,0.4911110161158682,0.5669449758982454,0.6372216496775454,0.7126132289581455,0.7888113283749676,0.8593276374239205,0.9242783819988668,0.9213867341797316,0.8905267970355506,0.8699719862234538,0.8465624580255406,0.8173550773888067,0.7860913836321288,0.7708529467705851,0.7879796992673638,0.81952966411893,0.8252033535196277,0.8163393028712396,0.8205407876740709,0.833498748369417,0.8354278479609294,0.8189512691661511,0.8195897770451981,0.8546321667571277,0.8771684287862005,0.875588103458026,0.8203246761428049,0.7483176396511801,0.6767839884695745,0.6004091780777849,0.5286015729484506,0.455456540463198,0.3787297291076901,0.3020878234593618,0.2299739591465156,0.1571505572629269,0.0804637838527816,0.0090611780565207,0,0.0617221435912004,0.13619360890847,0.2065930561773461,0.2826656720309558,0.3594540909731085,0.4360286929407582,0.5076121329962289,0.5756345612398401,0.6408038697620537,0.7159198919343783,0.7862205733750014,0.8604371452074726,0.9182651571092216,0.9078013978155566,0.8808024324596646,0.8547629302728554,0.8286505370442863,0.8001643012661899,0.774061737740303,0.7619472775597702,0.7879374277535691,0.8202105645590256,0.8334128029585148,0.836045391021345,0.8387315026777453,0.8505755003309408,0.8531715674504758,0.8353529365790417,0.8258109280318127,0.8401624513465962,0.8661556888200928,0.8800637494190335,0.8541823934298849,0.7864711545913801,0.7163170490838002,0.6404777160863289,0.5673936998560298,0.4955260706775168,0.4189163004010698,0.3421756786051344,0.2687750649794008,0.1971959227533969,0.1206531942661908,0.0476439753745114,0.0172579319984655,0.0667209966195032,0.1411736770427225,0.2114467867844823,0.2868448183040569,0.3636293205004792,0.4404187255606442,0.5172081306208081,0.5939975356809719,0.6707509049849376,0.7445147778921068,0.8155977388703668,0.884450095305203,0.9044576413239738,0.8795047071247726,0.860897219500874,0.841381421402003,0.8135278424119354,0.7833249276432055,0.7712142045090067,0.7906185196318614,0.8259368018391051,0.843701911059094,0.8374108138079333,0.835599317211621,0.8438404961935548,0.8498546564543135,0.8494579263387083,0.833377203490443,0.8366501165435987,0.8621540491950561,0.8874703134668671,0.8887952444094271,0.8390367349228973,0.7683441637139712,0.6973867611341984,0.672604015203284,0.7359583541168053,0.8111254522420164,0.8813136354303488,0.9446655731677076,0.9412839712932726,0.9178530705409158,0.8992294995167265,0.8709309167326951,0.8700665675909949,0.8806354701735852,0.8795878897912861,0.8683537995461461,0.8635331340764067,0.863913304198829,0.8709646188076323,0.8614237294892335,0.8292748504782419,0.8030068993637487,0.8134053391728207,0.8445620079259304,0.870549567230009,0.8885584857030813,0.910720731610834,0.9502129241298668,0.9808046484084244,0.937853520443982,0.8685892965265127,0.7972175973556155,0.7249079587719005,0.6503466573889165,0.6246717515509752,0.6854999979971799,0.7588501440936064,0.8296533875057948,0.8986496705307183,0.9422164883052656,0.9173741517660624,0.9007591600027351,0.8794708248663425,0.8565040363634555,0.8673721824744682,0.8820978073842305,0.8801728863151341,0.8699041781326644,0.8589703838995937,0.8599801278730417,0.8570586353184066,0.8365095301778023,0.8007463867029627,0.7926027787969594,0.8161171110995733,0.843605809137449,0.8729629452038894,0.8973802869411818,0.9270634709449928,0.9667602199634422,0.988517113695094,0.9401728511143804,0.8700148961125915,0.7984794145869727,0.7253502582394071,0.6498034821625867,0.6038648390755585,0.6500477639597129,0.7262479434657223,0.803013817910182,0.8770707160981845,0.9390558891022855,0.9462150143741924,0.9126219602129186,0.8956583263805609,0.8624491071023599,0.8468468383108971,0.8617818991868367,0.8625504773635408,0.8537515179623876,0.8464159132261897,0.8539676784981163,0.854279649825247,0.8382331089868746,0.8077602862028879,0.8091968910262677,0.8379024697124349,0.8695037309469356,0.8919618043300637,0.9132094079081912,0.945404078206284,0.9922849137831318,1,0.9430116165058382,0.874023687504552,0.8023928750470044,0.7268307962128453,0.6565719782098121,0.5837938602288057,0.5693666535095074,0.6371476597496541,0.7110368724452338,0.782134168433311,0.8554611678180017,0.9239171205039438,0.9599451199126164,0.932074530310429,0.911961043054061,0.8870153872193596,0.8610860855011968,0.8719714252318793,0.8873603878977896,0.878282814804644
1,0.9579716934036316,0.950695322099388,0.94102389446819,0.930501417475496,0.9136006842116576,0.8922443987351625,0.8680164374316464,0.8551269396237409,0.8353073334770187,0.7986403158327069,0.7331884637446779,0.66406184559896,0.6014041067268172,0.5957824213222982,0.6463506281643521,0.7033961778780466,0.7611257733416252,0.8029205505285373,0.8364693102905774,0.8582465595721298,0.8642787445790967,0.852346504586293,0.802839016653635,0.7196578623161916,0.6201866313131625,0.5170334660274625,0.4221965647527708,0.3637594453770705,0.4256022996899669,0.5257861592605124,0.6200862091586901,0.7151162331415324,0.7938952659343799,0.8803799430412749,0.942969903033064,0.9581891647954768,0.9782973505782886,0.964474739661218,0.9534435711412512,0.9824072930304486,1,0.998680787091328,0.987661890736772,0.979626955169418,0.966527978564114,0.9559633664696404,0.941386718264186,0.9285947781413336,0.9231843033519294,0.9372072212679076,0.9340030470480882,0.8930278390784521,0.8355683411997261,0.7711550486290375,0.7091018255534487,0.6901223161446981,0.7396576496245189,0.7917413948747165,0.8394625366553417,0.8740349051808649,0.8884759701978213,0.8994021995492374,0.8949436993522331,0.8467620183804629,0.7647455316087308,0.6712812473334426,0.5750797388971067,0.4812272400305666,0.38287741493506,0.3295053636681673,0.3839661025854872,0.460840948007589,0.5566147518843354,0.6509677098221656,0.7484060257493104,0.8415893441789617,0.9191110274279116,0.9302667158794432,0.9262749415429904,0.902755591623534,0.8845590461520119,0.9037368640546656,0.9262508167281004,0.9203950911955596,0.9269244769136034,0.9234259297291896,0.915493981684636,0.9078174540013912,0.8919612843397315,0.8850185143471982,0.8748702759648088,0.8808983015102267,0.8599750408641182,0.806353089289825,0.7435803291542085,0.6805325811885021,0.6321831619679554,0.6662719241552111,0.72500123402701,0.7847996419170169,0.8311487403022011,0.867538956939983,0.8994346158744451,0.9145031297979918,0.9137798874713544,0.8784464608029574,0.7976967744871368,0.7044566005556425,0.6116414193089503,0.5114295377087701,0.419864841622855,0.4057676164451345,0.493808234255439,0.5891613873955097,0.6909974804007075,0.78388474699568,0.8804754587225365,0.95831878720307,0.9706182588186922,0.9543322513014664,0.9230601826794368,0.9135604017318956,0.9032617514004552,0.8258179996248196,0.7246222393128052,0.6211648666972018,0.5192013511763811,0.4263733977163921,0.325614823712691,0.2317622941677413,0.135198967020508,0.0700585717014934,0.1093206033152647,0.1998278534805033,0.2978582520748443,0.3916559147177232,0.4909300741840825,0.5868114524161392,0.6839198208729034,0.7857597480027212,0.8630327878627857,0.8785067983164412,0.8630278032566894,0.8339624712291651,0.7975317136580045,0.7519315183184463,0.6922895450379389,0.6293978178043078,0.5905661165564862,0.6035478018386797,0.6592228256566699,0.7233843821017287,0.7880678255673117,0.8317675029930371,0.8384982998052046,0.8390154877476856,0.848410490854135,0.8611237835637859,0.8690634209992485,0.8771933265535004,0.8812032882110876,0.881208296186113,0.8757808191957932,0.8496450519780177,0.8309830167522567,0.8509130940096155,0.8764596164047709,0.8727741692871183,0.8241598504613701,0.7246215061956085,0.6211882703070501,0.5215129124336344,0.4278109826588852,0.3253048647771948,0.2301284606540652,0.1337885262875755,0.0438525316715954,0,0.0601091379309781,0.1560223357234729,0.2526885216807266,0.3488757086760461,0.4478727900151076,0.5419539318096991,0.6448633414914298,0.7440908319590331,0.8236323879133223,0.8593934104419563,0.8556097808596004,0.8446487178693642,0.8094539412717769,0.7660985659762316,0.7115131260720418,0.655056912658948,0.622525535226889,0.645988597456066,0.7058701035346289,0.7711889503965579,0.8382367430162287,0.8861902178112104,0.8919669534258672,0.8821823988016009,0.8879739063448442,0.9023495131525796,0.9112688074026488,0.9251650035235656,0.9422317599324566,0.9545331354241632,0.9650037627115612,0.9529451118743166,0.9213373540446748,0.901759287490135,0.9215647425191906,0.9254620170614528,0.9018111822782484,0.8447740202148344,0.7526837053837636,0.6563734655421127,0.560944456637829,0.4635620198947192,0.3656556484329987,0.2705845460342788,0.1686364990826121,0.0767053333652998,0.0127495459754225,0.0617850449816057,0.1563381046830703,0.2529573311833974,0.3515926202528301,0.4459873250074078,0.5462343594349415,0.6294287984187985,0.7089478028538401,0.7873644639221831,0.8223574472631183,0.8176829599371338,0.7895332553758085,0.7561690923565472,0.7082569372477319,0.6466284338380812,0.5893854566870824,0.5430159941773871,0.5333826241022295,0.5839103390992713,0.6547981643000553,0.7207934256236044,0.7787895733048105,0.8068831597264041,0.8186399474656283,0.8424719760578792,0.8667396287944125,0.8841524295277683,0.8971957692284134,0.9112926683152892,0.9229025433211016,No,0,1,2,3,4,5,6,7,8,9,10,11,12,13,14,15,16,17,18,19,20,21,22,23,24,25,26,27,28,29,30,31,32,33,34,35,36,37,38,39,40,41,42,43,44,45,46,47,48,49,50,51,52,53,54,55,56,57,58,59,60,61,62,63,64,65,66,67,68,69,70,71,72,73,74,75,76,77,78,79,80,81,82,83,84,85,86,87,88,89,90,91,92,93,94,95,96,97,98,99,100,101,102,103,104,105,106,107,108,109,110,111,112,113,114,115,116,117,118,119,120,121,122,123,124,125,126,127,128,129,130,131,132,133,134,135,136,137,138,139,140,141,142,143,144,145,146,147,148,149,150,151,152,153,154,155,156,157,158,159,160,161,162,163,164,165,166,167,168,169,170,171,172,173,174,175,176,177,178,179,180,181,182,183,184,185,186,187,188,189,190,191,192,193,194,195,196,197,198,199,200,201,202,203,204,205,206,207,208,209,210,211,212,213,214,215,216,217,218,219,220,221,222,223,224,225,226,227,228,229,230,231,232,233,234,235,236,237,238,239,240,241,242,243,244,245,246,247,248,249,250,251,252,253,254,0,1,2,3,4,5,6,7,8,9,10,11,12,13,14,15,16,17,18,19,20,21,22,23,24,25,26,27,28,29,30,31,32,33,34,35,36,37,38,39,40,41,42,43,44,45,46,47,48,49,50,51,52,53,54,55,56,57,58,59,60,61,62,63,64,65,66,67,68,69,70,71,72,73,74,75,76,77,78,79,80,81,82,83,84,85,86,87,88,89,90,91,92,93,94,95,96,97,98,99,100,101,102,103,104,105,106,107,108,109,110,111,112,113,114,115,116,117,118,119,120,121,122,123,124,125,126,127,128,129,130,131,132,133,134,135,136,137,138,139,140,141,142,143,144,145,146,147,148,149,150,151,152,153,154,155,156,157,158,159,160,161,162,163,164,165,166,167,168,169,170,171,172,173,174,175,176,177,178,179,180,181,182,183,184,185,186,187,188,189,190,191,192,193,194,195,196,197,198,199,200,201,202,203,204,205,206,207,208,209,210,211,212,213,214,215,216,217,218,219,220,221,222,223,224,225,226,227,228,229,230,231,232,233,234,235,236,237,238,239,240,241,242,243,244,245,246,247,248,249,250,251,252,253,254,0,1,2,3,4,5,6,7,8,9,10,11,12,13,14,15,16,17,18,19,20,21,22,23,24,25,26,27,28,29,30,31,32,33,34,35,36,37,38,39,40,41,42,43,44,45,46,47,48,49,50,51,52,53,54,55,56,57,58,59,60,61,62,63,64,65,66,67,68,69,70,71,72,73,74,75,76,77,78,79,80,81,82,83,84,85,86,87,88,89,90,91,92,93,94,95,96,97,98,99,100,101,102,103,104,105,106,107,108,109,110,111,112,113,114,115,116,117,118,119,120,121,122,123,124,125,126,127,128,129,130,131,132,133,134,135,136,137,138,139,140,141,142,143,144,145,146,147,148,149,150,151,152,153,154,155,156,157,158,159,160,161,162,163,164,165,166,167,168,169,170,171,172,173,174,175,176,177,178,179,180,181,182,183,184,185,186,187,188,189,190,191,192,193,194,195,196,197,198,199,200,201,202,203,204,205,206,207,208,209,210,211,212,213,214,215,216,217,218,219,220,221,222,223,224,225,226,227,228,229,230,231,232,233,234,235,236,237,238,239,240,241,242,243,244,245,246,247,248,249,250,251,252,253,254,0,1,2,3,4,5,6,7,8,9,10,11,12,13,14,15,16,17,18,19,20,21,22,23,24,25,26,27,28,29,30,31,32,33,34,35,36,37,38,39,40,41,42,43,44,45,46,47,48,49,50,51,52,53,54,55,56,57,58,59,60,61,62,63,64,65,66,67,68,69,70,71,72,73,74,75,76,77,78,79,80,81,82,83,84,85,86,87,88,89,90,91,92,93,94,95,96,97,98,99,100,101,102,103,104,105,106,107,108,109,110,111,112,113,114,115,116,117,118,119,120,121,122,123,124,125,126,127,128,129,130,131,132,133,134,135,136,137,138,139,140,141,142,143,144,145,146,147,148,149,150,151,152,153,154,155,156,157,158,159,160,161,162,163,164,165,166,167,168,169,170,171,172,173,174,175,176,177,178,179,180,181,182,183,184,185,186,187,188,189,190,191,192,193,194,195,196,197,198,199,200,201,202,203,204,205,206,207,208,209,210,211,212,213,214,215,216,217,218,219,220,221,222,223,224,225,226,227,228,229,230,231,232,233,234,235,236,237,238,239,240,241,242,243,244,245,246,247,248,249,250,251,252,253,254,0,1,2,3,4,5,6,7,8,9,10,11,12,13,14,15,16,17,18,19,20,21,22,23,24,25,26,27,28,29,30,31,32,33,34,35,36,37,38,39,40,41,42,43,44,45,46,47,48,49,50,51,52,53,54,55,56,57,58,59,60,61,62,63,64,65,66,67,68,69,70,71,72,73,74,75,76,77,78,79,80,81,82,83,84,85,86,87,88,89,90,91,92,93,94,95,96,97,98,99,100,101,102,103,104,105,106,107,108,109,110,111,112,113,114,115,116,117,118,119,120,121,122,123,124,125,126,127,128,129,130,131,132,133,134,135,136,137,138,139,140,141,142,143,144,145,146,147,148,149,150,151,152,153,154,155,156,157,158,159,160,161,162,163,164,165,166,167,168,169,170,171,172,173,174,175,176,177,178,179,180,181,182,183,184,185,186,187,188,189,190,191,192,193,194,195,196,197,198,199,200,201,202,203,204,205,206,207,208,209,210,211,212,213,214,215,216,217,218,219,220,221,222,223,224,225,226,227,228,229,230,231,232,233,234,235,236,237,238,239,240,241,242,243,244,245,246,247,248,249,250,251,252,253,254,0,1,2,3,4,5,6,7,8,9,10,11,12,13,14,15,16,17,18,19,20,21,22,23,24,25,26,27,28,29,30,31,32,33,34,35,36,37,38,39,40,41,42,43,44,45,46,47,48,49,50,51,52,53,54,55,56,57,58,59,60,61,62,63,64,65,66,67,68,69,70,71,72,73,74,75,76,77,78,79,80,81,82,83,84,85,86,87,88,89,90,91,92,93,94,95,96,97,98,99,100,101,102,103,104,105,106,107,108,109,110,111,112,113,114,115,116,117,118,119,120,121,122,123,124,125,126,127,128,129,130,131,132,133,134,135,136,137,138,139,140,141,142,143,144,145,146,147,148,149,150,151,152,153,154,155,156,157,158,159,160,161,162,163,164,165,166,167,168,169,170,171,172,173,174,175,176,177,178,179,180,181,182,183,184,185,186,187,188,189,190,191,192,193,194,195,196,197,198,199,200,201,202,203,204,205,206,207,208,209,210,211,212,213,214,215,216,217,218,219,220,221,222,223,224,225,226,227,228,229,230,231,232,233,234,235,236,237,238,239,240,241,242,243,244,245,246,247,248,249,250,251,252,253,254,0,1,2,3,4,5,6,7,8,9,10,11,12,13,14,15,16,17,18,19,20,21,22,23,24,25,26,27,28,29,30,31,32,33,34,35,36,37,38,39,40,41,42,43,44,45,46,47,48,49,50,51,52,53,54,55,56,57,58,59,60,61,62,63,64,65,66,67,68,69,70,71,72,73,74,75,76,77,78,79,80,81,82,83,84,85,86,87,88,89,90,91,92,93,94,95,96,97,98,99,100,101,102,103,104,105,106,107,108,109,110,111,112,113,114,115,116,117,118,119,120,121,122,123,124,125,126,127,128,129,130,131,132,133,134,135,136,137,138,139,140,141,142,143,144,145,146,147,148,149,150,151,152,153,154,155,156,157,158,159,160,161,162,163,164,165,166,167,168,169,170,171,172,173,174,175,176,177,178,179,180,181,182,183,184,185,186,187,188,189,190,191,192,193,194,195,196,197,198,199,200,201,202,203,204,205,206,207,208,209,210,211,212,213,214,215,216,217,218,219,220,221,222,223,224,225,226,227,228,229,230,231,232,233,234,235,236,237,238,239,240,241,242,243,244,245,246,247,248,249,250,251,252,253,254,0,1,2,3,4,5,6,7,8,9,10,11,12,13,14,15,16,17,18,19,20,21,22,23,24,25,26,27,28,29,30,31,32,33,34,35,36,37,38,39,40,41,42,43,44,45,46,47,48,49,50,51,52,53,54,55,56,57,58,59,60,61,62,63,64,65,66,67,68,69,70,71,72,73,74,75,76,77,78,79,80,81,82,83,84,85,86,87,88,89,90,91,92,93,94,95,96,97,98,99,100,101,102,103,104,105,106,107,108,109,110,111,112,113,114,115,116,117,118,119,120,121,122,123,124,125,126,127,128,129,130,131,132,133,134,135,136,137,138,139,140,141,142,143,144,145,146,147,148,149,150,151,152,153,154,155,156,157,158,159,160,161,162,163,164,165,166,167,168,169,170,171,172,173,174,175,176,177,178,179,180,181,182,183,184,185,186,187,188,189,190,191,192,193,194,195,196,197,198,199,200,201,202,203,204,205,206,207,208,209,210,211,212,213,214,215,216,217,218,219,220,221,222,223,224,225,226,227,228,229,230,231,232,233,234,235,236,237,238,239,240,241,242,243,244,245,246,247,248,249,250,251,252,253,254,0,1,2,3,4,5,6,7,8,9,10,11,12,13,14,15,16,17,18,19,20,21,22,23,24,25,26,27,28,29,30,31,32,33,34,35,36,37,38,39,40,41,42,43,44,45,46,47,48,49,50,51,52,53,54,55,56,57,58,59,60,61,62,63,64,65,66,67,68,69,70,71,72,73,74,75,76,77,78,79,80,81,82,83,84,85,86,87,88,89,90,91,92,93,94,95,96,97,98,99,100,101,102,103,104,105,106,107,108,109,110,111,112,113,114,115,116,117,118,119,120,121,122,123,124,125,126,127,128,129,130,131,132,133,134,135,136,137,138,139,140,141,142,143,144,145,146,147,148,149,150,151,152,153,154,155,156,157,158,159,160,161,162,163,164,165,166,167,168,169,170,171,172,173,174,175,176,177,178,179,180,181,182,183,184,185,186,187,188,189,190,191,192,193,194,195,196,197,198,199,200,201,202,203,204,205,206,207,208,209,210,211,212,213,214,215,216,217,218,219,220,221,222,223,224,225,226,227,228,229,230,231,232,233,234,235,236,237,238,239,240,241,242,243,244,245,246,247,248,249,250,251,252,253,254,0,1,2,3,4,5,6,7,8,9,10,11,12,13,14,15,16,17,18,19,20,21,22,23,24,25,26,27,28,29,30,31,32,33,34,35,36,37,38,39,40,41,42,43,44,45,46,47,48,49,50,51,52,53,54,55,56,57,58,59,60,61,62,63,64,65,66,67,68,69,70,71,72,73,74,75,76,77,78,79,80,81,82,83,84,85,86,87,88,89,90,91,92,93,94,95,96,97,98,99,100,101,102,103,104,105,106,107,108,109,110,111,112,113,114,115,116,117,118,119,120,121,122,123,124,125,126,127,128,129,130,131,132,133,134,135,136,137,138,139,140,141,142,143,144,145,146,147,148,149,150,151,152,153,154,155,156,157,158,159,160,161,162,163,164,165,166,167,168,169,170,171,172,173,174,175,176,177,178,179,180,181,182,183,184,185,186,187,188,189,190,191,192,193,194,195,196,197,198,199,200,201,202,203,204,205,206,207,208,209,210,211,212,213,214,215,216,217,218,219,220,221,222,223,224,225,226,227,228,229,230,231,232,233,234,235,236,237,238,239,240,241,242,243,244,245,246,247,248,249,250,251,252,253,254,0,1,2,3,4,5,6,7,8,9,10,11,12,13,14,15,16,17,18,19,20,21,22,23,24,25,26,27,28,29,30,31,32,33,34,35,36,37,38,39,40,41,42,43,44,45,46,47,48,49,50,51,52,53,54,55,56,57,58,59,60,61,62,63,64,65,66,67,68,69,70,71,72,73,74,75,76,77,78,79,80,81,82,83,84,85,86,87,88,89,90,91,92,93,94,95,96,97,98,99,100,101,102,103,104,105,106,107,108,109,110,111,112,113,114,115,116,117,118,119,120,121,122,123,124,125,126,127,128,129,130,131,132,133,134,135,136,137,138,139,140,141,142,143,144,145,146,147,148,149,150,151,152,153,154,155,156,157,158,159,160,161,162,163,164,165,166,167,168,169,170,171,172,173,174,175,176,177,178,179,180,181,182,183,184,185,186,187,188,189,190,191,192,193,194,195,196,197,198,199,200,201,202,203,204,205,206,207,208,209,210,211,212,213,214,215,216,217,218,219,220,221,222,223,224,225,226,227,228,229,230,231,232,233,234,235,236,237,238,239,240,241,242,243,244,245,246,247,248,249,250,251,252,253,254,0,1,2,3,4,5,6,7,8,9,10,11,12,13,14,15,16,17,18,19,20,21,22,23,24,25,26,27,28,29,30,31,32,33,34,35,36,37,38,39,40,41,42,43,44,45,46,47,48,49,50,51,52,53,54,55,56,57,58,59,60,61,62,63,64,65,66,67,68,69,70,71,72,73,74,75,76,77,78,79,80,81,82,83,84,85,86,87,88,89,90,91,92,93,94,95,96,97,98,99,100,101,102,103,104,105,106,107,108,109,110,111,112,113,114,115,116,117,118,119,120,121,122,123,124,125,126,127,128,129,130,131,132,133,134,135,136,137,138,139,140,141,142,143,144,145,146,147,148,149,150,151,152,153,154,155,156,157,158,159,160,161,162,163,164,165,166,167,168,169,170,171,172,173,174,175,176,177,178,179,180,181,182,183,184,185,186,187,188,189,190,191,192,193,194,195,196,197,198,199,200,201,202,203,204,205,206,207,208,209,210,211,212,213,214,215,216,217,218,219,220,221,222,223,224,225,226,227,228,229,230,231,232,233,234,235,236,237,238,239,240,241,242,243,244,245,246,247,248,249,250,251,252,253,254
